0.000	2.331
0.002	2.643
0.004	2.899
0.006	3.036
0.008	3.033
0.010	2.872
0.012	2.531
0.014	2.045
0.016	1.475
0.018	0.905
0.020	0.436
0.022	0.117
0.024	-0.094
0.026	-0.268
0.028	-0.440
0.030	-0.596
0.032	-0.706
0.034	-0.744
0.036	-0.697
0.038	-0.592
0.040	-0.469
0.042	-0.359
0.044	-0.289
0.046	-0.263
0.048	-0.245
0.050	-0.190
0.052	-0.120
0.054	-0.083
0.056	-0.081
0.058	-0.105
0.060	-0.160
0.062	-0.230
0.064	-0.282
0.066	-0.311
0.068	-0.298
0.070	-0.239
0.072	-0.189
0.074	-0.184
0.076	-0.207
0.078	-0.233
0.080	-0.253
0.082	-0.264
0.084	-0.260
0.086	-0.244
0.088	-0.224
0.090	-0.203
0.092	-0.181
0.094	-0.155
0.096	-0.130
0.098	-0.110
0.100	-0.093
0.102	-0.075
0.104	-0.055
0.106	-0.039
0.108	-0.032
0.110	-0.026
0.112	-0.016
0.114	-0.007
0.116	0.005
0.118	0.020
0.120	0.036
0.122	0.050
0.124	0.062
0.126	0.074
0.128	0.085
0.130	0.091
0.132	0.091
0.134	0.084
0.136	0.075
0.138	0.070
0.140	0.071
0.142	0.073
0.144	0.078
0.146	0.085
0.148	0.093
0.150	0.095
0.152	0.090
0.154	0.081
0.156	0.072
0.158	0.067
0.160	0.066
0.162	0.066
0.164	0.065
0.166	0.068
0.168	0.080
0.170	0.096
0.172	0.110
0.174	0.122
0.176	0.133
0.178	0.143
0.180	0.148
0.182	0.148
0.184	0.146
0.186	0.149
0.188	0.157
0.190	0.167
0.192	0.179
0.194	0.196
0.196	0.212
0.198	0.225
0.200	0.235
0.202	0.246
0.204	0.258
0.206	0.270
0.208	0.283
0.210	0.294
0.212	0.301
0.214	0.305
0.216	0.308
0.218	0.312
0.220	0.315
0.222	0.316
0.224	0.315
0.226	0.315
0.228	0.314
0.230	0.319
0.232	0.328
0.234	0.337
0.236	0.347
0.238	0.360
0.240	0.373
0.242	0.386
0.244	0.398
0.246	0.408
0.248	0.415
0.250	0.422
0.252	0.431
0.254	0.443
0.256	0.458
0.258	0.474
0.260	0.488
0.262	0.495
0.264	0.498
0.266	0.505
0.268	0.518
0.270	0.532
0.272	0.544
0.274	0.550
0.276	0.554
0.278	0.556
0.280	0.560
0.282	0.567
0.284	0.575
0.286	0.580
0.288	0.581
0.290	0.581
0.292	0.583
0.294	0.585
0.296	0.587
0.298	0.587
0.300	0.584
0.302	0.578
0.304	0.570
0.306	0.563
0.308	0.554
0.310	0.541
0.312	0.524
0.314	0.504
0.316	0.486
0.318	0.471
0.320	0.456
0.322	0.439
0.324	0.418
0.326	0.397
0.328	0.376
0.330	0.355
0.332	0.333
0.334	0.311
0.336	0.292
0.338	0.275
0.340	0.259
0.342	0.241
0.344	0.219
0.346	0.198
0.348	0.179
0.350	0.161
0.352	0.145
0.354	0.129
0.356	0.110
0.358	0.095
0.360	0.084
0.362	0.070
0.364	0.057
0.366	0.046
0.368	0.037
0.370	0.030
0.372	0.023
0.374	0.015
0.376	0.009
0.378	0.007
0.380	0.005
0.382	-0.000
0.384	-0.008
0.386	-0.015
0.388	-0.019
0.390	-0.021
0.392	-0.024
0.394	-0.025
0.396	-0.026
0.398	-0.027
0.400	-0.027
0.402	-0.026
0.404	-0.028
0.406	-0.031
0.408	-0.033
0.410	-0.034
0.412	-0.034
0.414	-0.038
0.416	-0.042
0.418	-0.044
0.420	-0.042
0.422	-0.038
0.424	-0.033
0.426	-0.027
0.428	-0.024
0.430	-0.025
0.432	-0.026
0.434	-0.026
0.436	-0.027
0.438	-0.025
0.440	-0.020
0.442	-0.018
0.444	-0.017
0.446	-0.013
0.448	-0.008
0.450	-0.007
0.452	-0.012
0.454	-0.017
0.456	-0.015
0.458	-0.009
0.460	-0.006
0.462	-0.006
0.464	-0.004
0.466	-0.000
0.468	0.000
0.470	0.000
0.472	0.002
0.474	0.007
0.476	0.013
0.478	0.016
0.480	0.018
0.482	0.018
0.484	0.018
0.486	0.016
0.488	0.013
0.490	0.011
0.492	0.009
0.494	0.008
0.496	0.006
0.498	0.000
0.500	-0.003
0.502	0.000
0.504	0.006
0.506	0.009
0.508	0.009
0.510	0.009
0.512	0.008
0.514	0.007
0.516	0.004
0.518	0.001
0.520	0.002
0.522	0.005
0.524	0.009
0.526	0.011
0.528	0.008
0.530	0.003
0.532	0.001
0.534	0.003
0.536	0.006
0.538	0.006
0.540	0.002
0.542	-0.007
0.544	-0.015
0.546	-0.015
0.548	-0.009
0.550	-0.003
0.552	-0.003
0.554	-0.005
0.556	-0.007
0.558	-0.009
0.560	-0.010
0.562	-0.011
0.564	-0.016
0.566	-0.023
0.568	-0.023
0.570	-0.019
0.572	-0.018
0.574	-0.020
0.576	-0.025
0.578	-0.028
0.580	-0.029
0.582	-0.029
0.584	-0.032
0.586	-0.033
0.588	-0.034
0.590	-0.036
0.592	-0.037
0.594	-0.037
0.596	-0.038
0.598	-0.040
0.600	-0.042
0.602	-0.043
0.604	-0.045
0.606	-0.048
0.608	-0.054
0.610	-0.056
0.612	-0.053
0.614	-0.055
0.616	-0.059
0.618	-0.063
0.620	-0.065
0.622	-0.065
0.624	-0.066
0.626	-0.069
0.628	-0.071
0.630	-0.072
0.632	-0.074
0.634	-0.074
0.636	-0.074
0.638	-0.074
0.640	-0.074
0.642	-0.074
0.644	-0.075
0.646	-0.077
0.648	-0.078
0.650	-0.077
0.652	-0.079
0.654	-0.080
0.656	-0.077
0.658	-0.074
0.660	-0.077
0.662	-0.084
0.664	-0.088
0.666	-0.085
0.668	-0.080
0.670	-0.080
0.672	-0.082
0.674	-0.087
0.676	-0.093
0.678	-0.096
0.680	-0.098
0.682	-0.099
0.684	-0.094
0.686	-0.088
0.688	-0.085
0.690	-0.086
0.692	-0.088
0.694	-0.089
0.696	-0.093
0.698	-0.095
0.700	-0.089
0.702	-0.082
0.704	-0.081
0.706	-0.079
0.708	-0.077
0.710	-0.075
0.712	-0.073
0.714	-0.070
0.716	-0.066
0.718	-0.063
0.720	-0.064
0.722	-0.062
0.724	-0.057
0.726	-0.055
0.728	-0.052
0.730	-0.044
0.732	-0.034
0.734	-0.025
0.736	-0.023
0.738	-0.032
0.740	-0.040
0.742	-0.041
0.744	-0.035
0.746	-0.030
0.748	-0.029
0.750	-0.030
0.752	-0.029
0.754	-0.026
0.756	-0.031
0.758	-0.043
0.760	-0.051
0.762	-0.052
0.764	-0.051
0.766	-0.054
0.768	-0.059
0.770	-0.069
0.772	-0.083
0.774	-0.096
0.776	-0.105
0.778	-0.111
0.780	-0.116
0.782	-0.125
0.784	-0.133
0.786	-0.128
0.788	-0.116
0.790	-0.110
0.792	-0.110
0.794	-0.111
0.796	-0.110
0.798	-0.103
0.800	-0.092
0.802	-0.082
0.804	-0.079
0.806	-0.081
0.808	-0.084
0.810	-0.092
0.812	-0.107
0.814	-0.118
0.816	-0.122
0.818	-0.127
0.820	-0.134
0.822	-0.143
0.824	-0.147
0.826	-0.145
0.828	-0.143
0.830	-0.148
0.832	-0.157
0.834	-0.160
0.836	-0.155
0.838	-0.150
0.840	-0.151
0.842	-0.155
0.844	-0.158
0.846	-0.156
0.848	-0.153
0.850	-0.158
0.852	-0.167
0.854	-0.171
0.856	-0.167
0.858	-0.161
0.860	-0.161
0.862	-0.165
0.864	-0.172
0.866	-0.177
0.868	-0.174
0.870	-0.169
0.872	-0.168
0.874	-0.175
0.876	-0.179
0.878	-0.169
0.880	-0.165
0.882	-0.166
0.884	-0.163
0.886	-0.160
0.888	-0.163
0.890	-0.173
0.892	-0.181
0.894	-0.184
0.896	-0.183
0.898	-0.182
0.900	-0.185
0.902	-0.185
0.904	-0.181
0.906	-0.179
0.908	-0.184
0.910	-0.195
0.912	-0.200
0.914	-0.197
0.916	-0.190
0.918	-0.182
0.920	-0.175
0.922	-0.174
0.924	-0.180
0.926	-0.179
0.928	-0.174
0.930	-0.168
0.932	-0.163
0.934	-0.164
0.936	-0.173
0.938	-0.178
0.940	-0.175
0.942	-0.176
0.944	-0.179
0.946	-0.179
0.948	-0.180
0.950	-0.184
0.952	-0.192
0.954	-0.201
0.956	-0.206
0.958	-0.209
0.960	-0.212
0.962	-0.209
0.964	-0.206
0.966	-0.213
0.968	-0.221
0.970	-0.218
0.972	-0.215
0.974	-0.206
0.976	-0.186
0.978	-0.176
0.980	-0.182
0.982	-0.186
0.984	-0.187
0.986	-0.185
0.988	-0.178
0.990	-0.167
0.992	-0.166
0.994	-0.166
0.996	-0.167
0.998	-0.173
1.000	-0.174
1.002	-0.170
1.004	-0.169
1.006	-0.168
1.008	-0.165
1.010	-0.163
1.012	-0.152
1.014	-0.142
1.016	-0.145
1.018	-0.145
1.020	-0.137
1.022	-0.134
1.024	-0.146
1.026	-0.165
1.028	-0.177
1.030	-0.181
1.032	-0.187
1.034	-0.189
1.036	-0.181
1.038	-0.181
1.040	-0.191
1.042	-0.197
1.044	-0.203
1.046	-0.221
1.048	-0.239
1.050	-0.240
1.052	-0.238
1.054	-0.257
1.056	-0.271
1.058	-0.267
1.060	-0.267
1.062	-0.277
1.064	-0.285
1.066	-0.288
1.068	-0.292
1.070	-0.291
1.072	-0.285
1.074	-0.280
1.076	-0.287
1.078	-0.292
1.080	-0.280
1.082	-0.274
1.084	-0.287
1.086	-0.292
1.088	-0.291
1.090	-0.294
1.092	-0.291
1.094	-0.281
1.096	-0.260
1.098	-0.248
1.100	-0.260
1.102	-0.275
1.104	-0.284
1.106	-0.284
1.108	-0.270
1.110	-0.260
1.112	-0.249
1.114	-0.242
1.116	-0.252
1.118	-0.263
1.120	-0.253
1.122	-0.231
1.124	-0.225
1.126	-0.245
1.128	-0.258
1.130	-0.254
1.132	-0.248
1.134	-0.253
1.136	-0.272
1.138	-0.260
1.140	-0.226
1.142	-0.214
1.144	-0.207
1.146	-0.199
1.148	-0.203
1.150	-0.207
1.152	-0.204
1.154	-0.205
1.156	-0.232
1.158	-0.287
1.160	-0.367
1.162	-0.476
1.164	-0.574
1.166	-0.616
1.168	-0.616
1.170	-0.592
1.172	-0.538
1.174	-0.464
1.176	-0.375
1.178	-0.261
1.180	-0.120
1.182	0.095
1.184	0.420
1.186	0.821
1.188	1.243
1.190	1.661
1.192	2.050
1.194	2.361
1.196	2.583
1.198	2.721
1.200	2.750
1.202	2.643
1.204	2.358
1.206	1.926
1.208	1.439
1.210	0.925
1.212	0.462
1.214	0.167
1.216	-0.015
1.218	-0.190
1.220	-0.320
1.222	-0.401
1.224	-0.483
1.226	-0.552
1.228	-0.599
1.230	-0.616
1.232	-0.576
1.234	-0.503
1.236	-0.456
1.238	-0.434
1.240	-0.409
1.242	-0.374
1.244	-0.323
1.246	-0.254
1.248	-0.213
1.250	-0.223
1.252	-0.227
1.254	-0.206
1.256	-0.195
1.258	-0.205
1.260	-0.206
1.262	-0.195
1.264	-0.192
1.266	-0.196
1.268	-0.197
1.270	-0.209
1.272	-0.228
1.274	-0.231
1.276	-0.218
1.278	-0.200
1.280	-0.195
1.282	-0.199
1.284	-0.191
1.286	-0.191
1.288	-0.196
1.290	-0.195
1.292	-0.186
1.294	-0.166
1.296	-0.152
1.298	-0.159
1.300	-0.181
1.302	-0.186
1.304	-0.170
1.306	-0.176
1.308	-0.189
1.310	-0.176
1.312	-0.174
1.314	-0.193
1.316	-0.190
1.318	-0.176
1.320	-0.179
1.322	-0.180
1.324	-0.165
1.326	-0.150
1.328	-0.143
1.330	-0.145
1.332	-0.154
1.334	-0.168
1.336	-0.182
1.338	-0.176
1.340	-0.155
1.342	-0.139
1.344	-0.131
1.346	-0.134
1.348	-0.147
1.350	-0.156
1.352	-0.143
1.354	-0.117
1.356	-0.105
1.358	-0.113
1.360	-0.129
1.362	-0.136
1.364	-0.125
1.366	-0.105
1.368	-0.094
1.370	-0.097
1.372	-0.094
1.374	-0.080
1.376	-0.078
1.378	-0.077
1.380	-0.056
1.382	-0.046
1.384	-0.071
1.386	-0.089
1.388	-0.068
1.390	-0.055
1.392	-0.077
1.394	-0.084
1.396	-0.065
1.398	-0.061
1.400	-0.063
1.402	-0.056
1.404	-0.050
1.406	-0.038
1.408	-0.018
1.410	0.006
1.412	0.021
1.414	0.024
1.416	0.028
1.418	0.039
1.420	0.053
1.422	0.060
1.424	0.062
1.426	0.062
1.428	0.056
1.430	0.058
1.432	0.070
1.434	0.089
1.436	0.102
1.438	0.086
1.440	0.073
1.442	0.096
1.444	0.126
1.446	0.145
1.448	0.161
1.450	0.182
1.452	0.194
1.454	0.186
1.456	0.200
1.458	0.227
1.460	0.235
1.462	0.240
1.464	0.251
1.466	0.275
1.468	0.289
1.470	0.278
1.472	0.267
1.474	0.253
1.476	0.253
1.478	0.286
1.480	0.302
1.482	0.290
1.484	0.294
1.486	0.307
1.488	0.295
1.490	0.280
1.492	0.271
1.494	0.265
1.496	0.273
1.498	0.284
1.500	0.276
1.502	0.250
1.504	0.230
1.506	0.214
1.508	0.187
1.510	0.163
1.512	0.142
1.514	0.127
1.516	0.125
1.518	0.109
1.520	0.068
1.522	0.033
1.524	0.020
1.526	0.010
1.528	-0.010
1.530	-0.030
1.532	-0.053
1.534	-0.064
1.536	-0.075
1.538	-0.112
1.540	-0.138
1.542	-0.132
1.544	-0.133
1.546	-0.156
1.548	-0.170
1.550	-0.167
1.552	-0.186
1.554	-0.216
1.556	-0.222
1.558	-0.219
1.560	-0.218
1.562	-0.224
1.564	-0.244
1.566	-0.260
1.568	-0.266
1.570	-0.264
1.572	-0.259
1.574	-0.275
1.576	-0.295
1.578	-0.292
1.580	-0.295
1.582	-0.301
1.584	-0.290
1.586	-0.291
1.588	-0.299
1.590	-0.293
1.592	-0.277
1.594	-0.256
1.596	-0.262
1.598	-0.286
1.600	-0.292
1.602	-0.281
1.604	-0.269
1.606	-0.245
1.608	-0.223
1.610	-0.227
1.612	-0.235
1.614	-0.240
1.616	-0.242
1.618	-0.263
1.620	-0.287
1.622	-0.287
1.624	-0.289
1.626	-0.274
1.628	-0.249
1.630	-0.244
1.632	-0.231
1.634	-0.206
1.636	-0.195
1.638	-0.196
1.640	-0.197
1.642	-0.203
1.644	-0.225
1.646	-0.247
1.648	-0.260
1.650	-0.248
1.652	-0.226
1.654	-0.229
1.656	-0.236
1.658	-0.224
1.660	-0.212
1.662	-0.231
1.664	-0.275
1.666	-0.296
1.668	-0.264
1.670	-0.230
1.672	-0.239
1.674	-0.254
1.676	-0.269
1.678	-0.279
1.680	-0.270
1.682	-0.271
1.684	-0.266
1.686	-0.242
1.688	-0.235
1.690	-0.243
1.692	-0.250
1.694	-0.264
1.696	-0.277
1.698	-0.278
1.700	-0.284
1.702	-0.298
1.704	-0.297
1.706	-0.287
1.708	-0.276
1.710	-0.265
1.712	-0.265
1.714	-0.261
1.716	-0.265
1.718	-0.277
1.720	-0.259
1.722	-0.239
1.724	-0.269
1.726	-0.316
1.728	-0.333
1.730	-0.321
1.732	-0.294
1.734	-0.282
1.736	-0.286
1.738	-0.289
1.740	-0.313
1.742	-0.344
1.744	-0.344
1.746	-0.334
1.748	-0.320
1.750	-0.309
1.752	-0.321
1.754	-0.336
1.756	-0.324
1.758	-0.315
1.760	-0.326
1.762	-0.333
1.764	-0.328
1.766	-0.318
1.768	-0.303
1.770	-0.300
1.772	-0.307
1.774	-0.332
1.776	-0.379
1.778	-0.391
1.780	-0.362
1.782	-0.332
1.784	-0.312
1.786	-0.304
1.788	-0.309
1.790	-0.338
1.792	-0.379
1.794	-0.390
1.796	-0.363
1.798	-0.354
1.800	-0.366
1.802	-0.349
1.804	-0.346
1.806	-0.376
1.808	-0.387
1.810	-0.384
1.812	-0.384
1.814	-0.372
1.816	-0.360
1.818	-0.364
1.820	-0.376
1.822	-0.370
1.824	-0.354
1.826	-0.347
1.828	-0.338
1.830	-0.336
1.832	-0.359
1.834	-0.379
1.836	-0.367
1.838	-0.344
1.840	-0.351
1.842	-0.372
1.844	-0.360
1.846	-0.333
1.848	-0.338
1.850	-0.360
1.852	-0.362
1.854	-0.359
1.856	-0.374
1.858	-0.379
1.860	-0.354
1.862	-0.317
1.864	-0.297
1.866	-0.303
1.868	-0.332
1.870	-0.365
1.872	-0.380
1.874	-0.377
1.876	-0.359
1.878	-0.341
1.880	-0.337
1.882	-0.328
1.884	-0.330
1.886	-0.363
1.888	-0.372
1.890	-0.352
1.892	-0.353
1.894	-0.371
1.896	-0.366
1.898	-0.327
1.900	-0.329
1.902	-0.379
1.904	-0.402
1.906	-0.390
1.908	-0.371
1.910	-0.370
1.912	-0.374
1.914	-0.348
1.916	-0.339
1.918	-0.377
1.920	-0.399
1.922	-0.387
1.924	-0.360
1.926	-0.336
1.928	-0.332
1.930	-0.347
1.932	-0.356
1.934	-0.369
1.936	-0.393
1.938	-0.395
1.940	-0.373
1.942	-0.351
1.944	-0.345
1.946	-0.338
1.948	-0.336
1.950	-0.356
1.952	-0.375
1.954	-0.377
1.956	-0.359
1.958	-0.352
1.960	-0.376
1.962	-0.389
1.964	-0.385
1.966	-0.370
1.968	-0.355
1.970	-0.366
1.972	-0.375
1.974	-0.362
1.976	-0.344
1.978	-0.342
1.980	-0.346
1.982	-0.331
1.984	-0.317
1.986	-0.321
1.988	-0.350
1.990	-0.374
1.992	-0.355
1.994	-0.314
1.996	-0.278
1.998	-0.268
2.000	-0.299
2.002	-0.332
2.004	-0.318
2.006	-0.299
2.008	-0.305
2.010	-0.306
2.012	-0.289
2.014	-0.273
2.016	-0.288
2.018	-0.321
2.020	-0.324
2.022	-0.289
2.024	-0.284
2.026	-0.305
2.028	-0.310
2.030	-0.327
2.032	-0.341
2.034	-0.329
2.036	-0.312
2.038	-0.318
2.040	-0.334
2.042	-0.353
2.044	-0.394
2.046	-0.399
2.048	-0.355
2.050	-0.349
2.052	-0.361
2.054	-0.332
2.056	-0.300
2.058	-0.305
2.060	-0.348
2.062	-0.383
2.064	-0.406
2.066	-0.417
2.068	-0.373
2.070	-0.329
2.072	-0.325
2.074	-0.314
2.076	-0.315
2.078	-0.358
2.080	-0.393
2.082	-0.380
2.084	-0.363
2.086	-0.389
2.088	-0.410
2.090	-0.397
2.092	-0.399
2.094	-0.408
2.096	-0.415
2.098	-0.411
2.100	-0.369
2.102	-0.347
2.104	-0.380
2.106	-0.390
2.108	-0.375
2.110	-0.390
2.112	-0.397
2.114	-0.406
2.116	-0.426
2.118	-0.415
2.120	-0.398
2.122	-0.402
2.124	-0.392
2.126	-0.339
2.128	-0.304
2.130	-0.327
2.132	-0.373
2.134	-0.412
2.136	-0.433
2.138	-0.414
2.140	-0.367
2.142	-0.351
2.144	-0.358
2.146	-0.377
2.148	-0.442
2.150	-0.529
2.152	-0.571
2.154	-0.601
2.156	-0.651
2.158	-0.656
2.160	-0.626
2.162	-0.565
2.164	-0.465
2.166	-0.392
2.168	-0.325
2.170	-0.192
2.172	0.014
2.174	0.268
2.176	0.580
2.178	0.948
2.180	1.306
2.182	1.646
2.184	1.955
2.186	2.159
2.188	2.279
2.190	2.343
2.192	2.295
2.194	2.081
2.196	1.706
2.198	1.223
2.200	0.706
2.202	0.280
2.204	0.029
2.206	-0.118
2.208	-0.241
2.210	-0.344
2.212	-0.426
2.214	-0.507
2.216	-0.590
2.218	-0.611
2.220	-0.578
2.222	-0.589
2.224	-0.623
2.226	-0.623
2.228	-0.580
2.230	-0.514
2.232	-0.460
2.234	-0.401
2.236	-0.362
2.238	-0.360
2.240	-0.380
2.242	-0.396
2.244	-0.358
2.246	-0.316
2.248	-0.338
2.250	-0.390
2.252	-0.408
2.254	-0.381
2.256	-0.347
2.258	-0.329
2.260	-0.338
2.262	-0.358
2.264	-0.371
2.266	-0.378
2.268	-0.371
2.270	-0.339
2.272	-0.316
2.274	-0.341
2.276	-0.351
2.278	-0.314
2.280	-0.306
2.282	-0.327
2.284	-0.312
2.286	-0.282
2.288	-0.286
2.290	-0.316
2.292	-0.329
2.294	-0.284
2.296	-0.241
2.298	-0.275
2.300	-0.311
2.302	-0.301
2.304	-0.294
2.306	-0.306
2.308	-0.327
2.310	-0.353
2.312	-0.339
2.314	-0.302
2.316	-0.276
2.318	-0.257
2.320	-0.268
2.322	-0.273
2.324	-0.262
2.326	-0.254
2.328	-0.252
2.330	-0.275
2.332	-0.282
2.334	-0.256
2.336	-0.226
2.338	-0.214
2.340	-0.225
2.342	-0.244
2.344	-0.259
2.346	-0.241
2.348	-0.228
2.350	-0.238
2.352	-0.244
2.354	-0.258
2.356	-0.247
2.358	-0.201
2.360	-0.194
2.362	-0.215
2.364	-0.220
2.366	-0.210
2.368	-0.168
2.370	-0.119
2.372	-0.108
2.374	-0.119
2.376	-0.125
2.378	-0.134
2.380	-0.159
2.382	-0.186
2.384	-0.186
2.386	-0.162
2.388	-0.155
2.390	-0.175
2.392	-0.162
2.394	-0.120
2.396	-0.089
2.398	-0.040
2.400	-0.009
2.402	-0.044
2.404	-0.069
2.406	-0.037
2.408	-0.010
2.410	-0.038
2.412	-0.076
2.414	-0.065
2.416	-0.023
2.418	0.017
2.420	0.038
2.422	0.024
2.424	0.014
2.426	0.061
2.428	0.123
2.430	0.128
2.432	0.107
2.434	0.099
2.436	0.088
2.438	0.099
2.440	0.102
2.442	0.099
2.444	0.122
2.446	0.123
2.448	0.121
2.450	0.152
2.452	0.172
2.454	0.156
2.456	0.132
2.458	0.134
2.460	0.160
2.462	0.180
2.464	0.174
2.466	0.167
2.468	0.173
2.470	0.164
2.472	0.147
2.474	0.135
2.476	0.125
2.478	0.127
2.480	0.142
2.482	0.135
2.484	0.107
2.486	0.110
2.488	0.108
2.490	0.062
2.492	0.017
2.494	-0.010
2.496	-0.011
2.498	0.004
2.500	-0.015
2.502	-0.070
2.504	-0.109
2.506	-0.117
2.508	-0.150
2.510	-0.214
2.512	-0.239
2.514	-0.206
2.516	-0.188
2.518	-0.185
2.520	-0.172
2.522	-0.204
2.524	-0.270
2.526	-0.316
2.528	-0.315
2.530	-0.288
2.532	-0.316
2.534	-0.376
2.536	-0.384
2.538	-0.375
2.540	-0.381
2.542	-0.377
2.544	-0.375
2.546	-0.390
2.548	-0.410
2.550	-0.420
2.552	-0.420
2.554	-0.432
2.556	-0.460
2.558	-0.474
2.560	-0.452
2.562	-0.426
2.564	-0.422
2.566	-0.420
2.568	-0.420
2.570	-0.434
2.572	-0.466
2.574	-0.476
2.576	-0.458
2.578	-0.450
2.580	-0.432
2.582	-0.408
2.584	-0.411
2.586	-0.430
2.588	-0.454
2.590	-0.479
2.592	-0.474
2.594	-0.443
2.596	-0.433
2.598	-0.440
2.600	-0.416
2.602	-0.380
2.604	-0.354
2.606	-0.329
2.608	-0.341
2.610	-0.401
2.612	-0.428
2.614	-0.398
2.616	-0.368
2.618	-0.358
2.620	-0.348
2.622	-0.335
2.624	-0.341
2.626	-0.378
2.628	-0.396
2.630	-0.364
2.632	-0.329
2.634	-0.317
2.636	-0.320
2.638	-0.349
2.640	-0.377
2.642	-0.366
2.644	-0.327
2.646	-0.288
2.648	-0.283
2.650	-0.325
2.652	-0.357
2.654	-0.344
2.656	-0.320
2.658	-0.301
2.660	-0.277
2.662	-0.264
2.664	-0.288
2.666	-0.334
2.668	-0.362
2.670	-0.358
2.672	-0.339
2.674	-0.335
2.676	-0.336
2.678	-0.325
2.680	-0.329
2.682	-0.351
2.684	-0.372
2.686	-0.366
2.688	-0.337
2.690	-0.327
2.692	-0.339
2.694	-0.339
2.696	-0.323
2.698	-0.315
2.700	-0.315
2.702	-0.316
2.704	-0.326
2.706	-0.348
2.708	-0.352
2.710	-0.335
2.712	-0.328
2.714	-0.348
2.716	-0.393
2.718	-0.410
2.720	-0.380
2.722	-0.359
2.724	-0.360
2.726	-0.354
2.728	-0.345
2.730	-0.337
2.732	-0.331
2.734	-0.341
2.736	-0.365
2.738	-0.380
2.740	-0.391
2.742	-0.404
2.744	-0.391
2.746	-0.367
2.748	-0.367
2.750	-0.377
2.752	-0.384
2.754	-0.389
2.756	-0.375
2.758	-0.364
2.760	-0.373
2.762	-0.382
2.764	-0.376
2.766	-0.364
2.768	-0.362
2.770	-0.367
2.772	-0.364
2.774	-0.355
2.776	-0.350
2.778	-0.350
2.780	-0.357
2.782	-0.357
2.784	-0.346
2.786	-0.348
2.788	-0.356
2.790	-0.353
2.792	-0.353
2.794	-0.370
2.796	-0.380
2.798	-0.370
2.800	-0.351
2.802	-0.341
2.804	-0.350
2.806	-0.368
2.808	-0.370
2.810	-0.352
2.812	-0.331
2.814	-0.324
2.816	-0.329
2.818	-0.336
2.820	-0.340
2.822	-0.351
2.824	-0.362
2.826	-0.365
2.828	-0.359
2.830	-0.342
2.832	-0.341
2.834	-0.355
2.836	-0.349
2.838	-0.347
2.840	-0.362
2.842	-0.370
2.844	-0.355
2.846	-0.340
2.848	-0.341
2.850	-0.344
2.852	-0.346
2.854	-0.352
2.856	-0.349
2.858	-0.336
2.860	-0.325
2.862	-0.325
2.864	-0.325
2.866	-0.320
2.868	-0.321
2.870	-0.335
2.872	-0.352
2.874	-0.363
2.876	-0.359
2.878	-0.339
2.880	-0.314
2.882	-0.304
2.884	-0.314
2.886	-0.329
2.888	-0.331
2.890	-0.320
2.892	-0.320
2.894	-0.319
2.896	-0.311
2.898	-0.306
2.900	-0.294
2.902	-0.292
2.904	-0.291
2.906	-0.286
2.908	-0.288
2.910	-0.297
2.912	-0.304
2.914	-0.295
2.916	-0.278
2.918	-0.265
2.920	-0.261
2.922	-0.271
2.924	-0.278
2.926	-0.280
2.928	-0.283
2.930	-0.274
2.932	-0.255
2.934	-0.253
2.936	-0.263
2.938	-0.271
2.940	-0.289
2.942	-0.312
2.944	-0.315
2.946	-0.303
2.948	-0.301
2.950	-0.317
2.952	-0.338
2.954	-0.347
2.956	-0.346
2.958	-0.336
2.960	-0.332
2.962	-0.342
2.964	-0.341
2.966	-0.326
2.968	-0.315
2.970	-0.317
2.972	-0.327
2.974	-0.336
2.976	-0.350
2.978	-0.360
2.980	-0.365
2.982	-0.372
2.984	-0.379
2.986	-0.379
2.988	-0.376
2.990	-0.357
2.992	-0.337
2.994	-0.345
2.996	-0.353
2.998	-0.345
3.000	-0.349
3.002	-0.359
3.004	-0.369
3.006	-0.378
3.008	-0.371
3.010	-0.358
3.012	-0.348
3.014	-0.348
3.016	-0.361
3.018	-0.365
3.020	-0.356
3.022	-0.360
3.024	-0.372
3.026	-0.379
3.028	-0.375
3.030	-0.364
3.032	-0.371
3.034	-0.380
3.036	-0.372
3.038	-0.361
3.040	-0.350
3.042	-0.337
3.044	-0.327
3.046	-0.323
3.048	-0.332
3.050	-0.345
3.052	-0.350
3.054	-0.346
3.056	-0.342
3.058	-0.344
3.060	-0.359
3.062	-0.390
3.064	-0.436
3.066	-0.498
3.068	-0.569
3.070	-0.616
3.072	-0.620
3.074	-0.598
3.076	-0.544
3.078	-0.456
3.080	-0.373
3.082	-0.309
3.084	-0.214
3.086	-0.060
3.088	0.172
3.090	0.510
3.092	0.921
3.094	1.327
3.096	1.689
3.098	1.996
3.100	2.231
3.102	2.376
3.104	2.441
3.106	2.416
3.108	2.231
3.110	1.863
3.112	1.382
3.114	0.880
3.116	0.453
3.118	0.171
3.120	-0.012
3.122	-0.169
3.124	-0.305
3.126	-0.403
3.128	-0.475
3.130	-0.533
3.132	-0.565
3.134	-0.560
3.136	-0.527
3.138	-0.487
3.140	-0.446
3.142	-0.410
3.144	-0.390
3.146	-0.387
3.148	-0.377
3.150	-0.334
3.152	-0.285
3.154	-0.268
3.156	-0.270
3.158	-0.268
3.160	-0.262
3.162	-0.255
3.164	-0.255
3.166	-0.265
3.168	-0.270
3.170	-0.262
3.172	-0.255
3.174	-0.250
3.176	-0.248
3.178	-0.253
3.180	-0.258
3.182	-0.260
3.184	-0.258
3.186	-0.250
3.188	-0.243
3.190	-0.248
3.192	-0.255
3.194	-0.256
3.196	-0.247
3.198	-0.236
3.200	-0.228
3.202	-0.221
3.204	-0.220
3.206	-0.221
3.208	-0.223
3.210	-0.227
3.212	-0.225
3.214	-0.217
3.216	-0.211
3.218	-0.202
3.220	-0.194
3.222	-0.192
3.224	-0.184
3.226	-0.168
3.228	-0.156
3.230	-0.158
3.232	-0.175
3.234	-0.191
3.236	-0.186
3.238	-0.172
3.240	-0.164
3.242	-0.164
3.244	-0.163
3.246	-0.162
3.248	-0.164
3.250	-0.165
3.252	-0.170
3.254	-0.170
3.256	-0.161
3.258	-0.156
3.260	-0.160
3.262	-0.159
3.264	-0.149
3.266	-0.137
3.268	-0.126
3.270	-0.114
3.272	-0.105
3.274	-0.104
3.276	-0.106
3.278	-0.100
3.280	-0.092
3.282	-0.085
3.284	-0.078
3.286	-0.074
3.288	-0.069
3.290	-0.062
3.292	-0.065
3.294	-0.073
3.296	-0.069
3.298	-0.059
3.300	-0.048
3.302	-0.035
3.304	-0.028
3.306	-0.024
3.308	-0.012
3.310	0.006
3.312	0.019
3.314	0.030
3.316	0.039
3.318	0.044
3.320	0.051
3.322	0.067
3.324	0.086
3.326	0.101
3.328	0.106
3.330	0.111
3.332	0.125
3.334	0.142
3.336	0.155
3.338	0.162
3.340	0.166
3.342	0.172
3.344	0.183
3.346	0.197
3.348	0.208
3.350	0.218
3.352	0.224
3.354	0.225
3.356	0.231
3.358	0.245
3.360	0.262
3.362	0.278
3.364	0.284
3.366	0.284
3.368	0.285
3.370	0.288
3.372	0.290
3.374	0.289
3.376	0.287
3.378	0.287
3.380	0.287
3.382	0.285
3.384	0.282
3.386	0.282
3.388	0.282
3.390	0.275
3.392	0.266
3.394	0.256
3.396	0.246
3.398	0.237
3.400	0.222
3.402	0.209
3.404	0.201
3.406	0.188
3.408	0.171
3.410	0.155
3.412	0.139
3.414	0.118
3.416	0.090
3.418	0.063
3.420	0.042
3.422	0.021
3.424	0.001
3.426	-0.013
3.428	-0.024
3.430	-0.043
3.432	-0.068
3.434	-0.085
3.436	-0.097
3.438	-0.111
3.440	-0.122
3.442	-0.128
3.444	-0.131
3.446	-0.136
3.448	-0.145
3.450	-0.158
3.452	-0.173
3.454	-0.187
3.456	-0.193
3.458	-0.195
3.460	-0.203
3.462	-0.215
3.464	-0.224
3.466	-0.226
3.468	-0.227
3.470	-0.226
3.472	-0.223
3.474	-0.229
3.476	-0.240
3.478	-0.241
3.480	-0.238
3.482	-0.239
3.484	-0.243
3.486	-0.248
3.488	-0.257
3.490	-0.264
3.492	-0.264
3.494	-0.262
3.496	-0.261
3.498	-0.257
3.500	-0.249
3.502	-0.240
3.504	-0.234
3.506	-0.230
3.508	-0.236
3.510	-0.245
3.512	-0.244
3.514	-0.235
3.516	-0.225
3.518	-0.218
3.520	-0.211
3.522	-0.206
3.524	-0.203
3.526	-0.198
3.528	-0.196
3.530	-0.196
3.532	-0.193
3.534	-0.185
3.536	-0.179
3.538	-0.179
3.540	-0.172
3.542	-0.159
3.544	-0.147
3.546	-0.138
3.548	-0.131
3.550	-0.130
3.552	-0.133
3.554	-0.138
3.556	-0.141
3.558	-0.144
3.560	-0.144
3.562	-0.134
3.564	-0.124
3.566	-0.123
3.568	-0.128
3.570	-0.129
3.572	-0.123
3.574	-0.123
3.576	-0.129
3.578	-0.131
3.580	-0.131
3.582	-0.126
3.584	-0.121
3.586	-0.119
3.588	-0.113
3.590	-0.104
3.592	-0.105
3.594	-0.113
3.596	-0.120
3.598	-0.117
3.600	-0.109
3.602	-0.107
3.604	-0.114
3.606	-0.118
3.608	-0.117
3.610	-0.111
3.612	-0.104
3.614	-0.101
3.616	-0.102
3.618	-0.106
3.620	-0.109
3.622	-0.108
3.624	-0.100
3.626	-0.093
3.628	-0.090
3.630	-0.090
3.632	-0.091
3.634	-0.093
3.636	-0.096
3.638	-0.100
3.640	-0.100
3.642	-0.096
3.644	-0.095
3.646	-0.103
3.648	-0.109
3.650	-0.106
3.652	-0.104
3.654	-0.109
3.656	-0.112
3.658	-0.109
3.660	-0.105
3.662	-0.103
3.664	-0.103
3.666	-0.105
3.668	-0.109
3.670	-0.115
3.672	-0.119
3.674	-0.123
3.676	-0.131
3.678	-0.136
3.680	-0.138
3.682	-0.147
3.684	-0.154
3.686	-0.148
3.688	-0.144
3.690	-0.145
3.692	-0.138
3.694	-0.135
3.696	-0.140
3.698	-0.146
3.700	-0.151
3.702	-0.150
3.704	-0.148
3.706	-0.153
3.708	-0.153
3.710	-0.147
3.712	-0.147
3.714	-0.153
3.716	-0.155
3.718	-0.147
3.720	-0.139
3.722	-0.140
3.724	-0.145
3.726	-0.148
3.728	-0.151
3.730	-0.152
3.732	-0.149
3.734	-0.144
3.736	-0.141
3.738	-0.142
3.740	-0.142
3.742	-0.139
3.744	-0.138
3.746	-0.141
3.748	-0.142
3.750	-0.143
3.752	-0.144
3.754	-0.144
3.756	-0.143
3.758	-0.140
3.760	-0.136
3.762	-0.139
3.764	-0.144
3.766	-0.142
3.768	-0.136
3.770	-0.129
3.772	-0.119
3.774	-0.110
3.776	-0.107
3.778	-0.107
3.780	-0.108
3.782	-0.112
3.784	-0.116
3.786	-0.113
3.788	-0.108
3.790	-0.104
3.792	-0.104
3.794	-0.107
3.796	-0.113
3.798	-0.118
3.800	-0.116
3.802	-0.106
3.804	-0.096
3.806	-0.094
3.808	-0.092
3.810	-0.086
3.812	-0.085
3.814	-0.092
3.816	-0.100
3.818	-0.107
3.820	-0.109
3.822	-0.105
3.824	-0.103
3.826	-0.105
3.828	-0.109
3.830	-0.114
3.832	-0.119
3.834	-0.124
3.836	-0.128
3.838	-0.131
3.840	-0.132
3.842	-0.126
3.844	-0.120
3.846	-0.116
3.848	-0.117
3.850	-0.120
3.852	-0.122
3.854	-0.123
3.856	-0.122
3.858	-0.115
3.860	-0.107
3.862	-0.106
3.864	-0.103
3.866	-0.099
3.868	-0.104
3.870	-0.110
3.872	-0.109
3.874	-0.102
3.876	-0.095
3.878	-0.094
3.880	-0.098
3.882	-0.101
3.884	-0.101
3.886	-0.100
3.888	-0.094
3.890	-0.084
3.892	-0.080
3.894	-0.083
3.896	-0.083
3.898	-0.080
3.900	-0.081
3.902	-0.082
3.904	-0.079
3.906	-0.078
3.908	-0.079
3.910	-0.080
3.912	-0.081
3.914	-0.079
3.916	-0.074
3.918	-0.074
3.920	-0.076
3.922	-0.080
3.924	-0.081
3.926	-0.073
3.928	-0.066
3.930	-0.062
3.932	-0.060
3.934	-0.060
3.936	-0.062
3.938	-0.061
3.940	-0.057
3.942	-0.053
3.944	-0.056
3.946	-0.064
3.948	-0.068
3.950	-0.067
3.952	-0.065
3.954	-0.061
3.956	-0.056
3.958	-0.052
3.960	-0.053
3.962	-0.058
3.964	-0.058
3.966	-0.063
3.968	-0.071
3.970	-0.073
3.972	-0.070
3.974	-0.067
3.976	-0.067
3.978	-0.066
3.980	-0.064
3.982	-0.061
3.984	-0.057
3.986	-0.053
3.988	-0.052
3.990	-0.051
3.992	-0.049
3.994	-0.047
3.996	-0.045
3.998	-0.045
4.000	-0.046
4.002	-0.051
4.004	-0.061
4.006	-0.068
4.008	-0.070
4.010	-0.068
4.012	-0.065
4.014	-0.062
4.016	-0.059
4.018	-0.056
4.020	-0.053
4.022	-0.051
4.024	-0.053
4.026	-0.055
4.028	-0.053
4.030	-0.046
4.032	-0.038
4.034	-0.029
4.036	-0.023
4.038	-0.021
4.040	-0.022
4.042	-0.021
4.044	-0.019
4.046	-0.017
4.048	-0.016
4.050	-0.018
4.052	-0.019
4.054	-0.016
4.056	-0.006
4.058	-0.002
4.060	-0.005
4.062	-0.006
4.064	-0.004
4.066	0.002
4.068	0.008
4.070	0.010
4.072	0.006
4.074	0.005
4.076	0.011
4.078	0.018
4.080	0.020
4.082	0.020
4.084	0.025
4.086	0.034
4.088	0.041
4.090	0.044
4.092	0.045
4.094	0.041
4.096	0.034
4.098	0.032
4.100	0.030
4.102	0.027
4.104	0.025
4.106	0.027
4.108	0.030
4.110	0.032
4.112	0.029
4.114	0.026
4.116	0.028
4.118	0.030
4.120	0.030
4.122	0.029
4.124	0.025
4.126	0.018
4.128	0.012
4.130	0.010
4.132	0.012
4.134	0.010
4.136	0.006
4.138	0.002
4.140	0.008
4.142	0.017
4.144	0.019
4.146	0.019
4.148	0.021
4.150	0.026
4.152	0.035
4.154	0.044
4.156	0.047
4.158	0.043
4.160	0.041
4.162	0.045
4.164	0.046
4.166	0.045
4.168	0.043
4.170	0.037
4.172	0.034
4.174	0.036
4.176	0.037
4.178	0.032
4.180	0.028
4.182	0.031
4.184	0.036
4.186	0.036
4.188	0.038
4.190	0.043
4.192	0.046
4.194	0.044
4.196	0.042
4.198	0.044
4.200	0.046
4.202	0.046
4.204	0.047
4.206	0.052
4.208	0.059
4.210	0.062
4.212	0.059
4.214	0.054
4.216	0.051
4.218	0.043
4.220	0.034
4.222	0.032
4.224	0.036
4.226	0.042
4.228	0.047
4.230	0.056
4.232	0.066
4.234	0.067
4.236	0.061
4.238	0.053
4.240	0.045
4.242	0.041
4.244	0.042
4.246	0.043
4.248	0.045
4.250	0.048
4.252	0.049
4.254	0.049
4.256	0.048
4.258	0.047
4.260	0.042
4.262	0.035
4.264	0.034
4.266	0.037
4.268	0.038
4.270	0.036
4.272	0.036
4.274	0.039
4.276	0.043
4.278	0.044
4.280	0.042
4.282	0.040
4.284	0.039
4.286	0.038
4.288	0.039
4.290	0.042
4.292	0.045
4.294	0.045
4.296	0.040
4.298	0.033
4.300	0.030
4.302	0.035
4.304	0.044
4.306	0.049
4.308	0.048
4.310	0.047
4.312	0.055
4.314	0.072
4.316	0.078
4.318	0.072
4.320	0.071
4.322	0.074
4.324	0.075
4.326	0.076
4.328	0.077
4.330	0.079
4.332	0.085
4.334	0.094
4.336	0.102
4.338	0.110
4.340	0.117
4.342	0.125
4.344	0.133
4.346	0.140
4.348	0.147
4.350	0.147
4.352	0.137
4.354	0.125
4.356	0.119
4.358	0.115
4.360	0.112
4.362	0.113
4.364	0.117
4.366	0.121
4.368	0.123
4.370	0.126
4.372	0.127
4.374	0.120
4.376	0.108
4.378	0.098
4.380	0.093
4.382	0.088
4.384	0.082
4.386	0.080
4.388	0.084
4.390	0.090
4.392	0.092
4.394	0.089
4.396	0.084
4.398	0.082
4.400	0.083
4.402	0.081
4.404	0.080
4.406	0.087
4.408	0.093
4.410	0.095
4.412	0.094
4.414	0.093
4.416	0.096
4.418	0.101
4.420	0.105
4.422	0.105
4.424	0.106
4.426	0.109
4.428	0.111
4.430	0.113
4.432	0.118
4.434	0.120
4.436	0.120
4.438	0.121
4.440	0.123
4.442	0.125
4.444	0.126
4.446	0.128
4.448	0.129
4.450	0.129
4.452	0.129
4.454	0.133
4.456	0.138
4.458	0.140
4.460	0.142
4.462	0.145
4.464	0.148
4.466	0.147
4.468	0.142
4.470	0.139
4.472	0.140
4.474	0.134
4.476	0.107
4.478	0.047
4.480	-0.042
4.482	-0.137
4.484	-0.204
4.486	-0.218
4.488	-0.198
4.490	-0.167
4.492	-0.112
4.494	-0.020
4.496	0.078
4.498	0.174
4.500	0.315
4.502	0.557
4.504	0.932
4.506	1.392
4.508	1.841
4.510	2.217
4.512	2.527
4.514	2.785
4.516	2.975
4.518	3.067
4.520	3.040
4.522	2.880
4.524	2.565
4.526	2.117
4.528	1.610
4.530	1.115
4.532	0.702
4.534	0.418
4.536	0.236
4.538	0.101
4.540	-0.013
4.542	-0.107
4.544	-0.161
4.546	-0.163
4.548	-0.130
4.550	-0.087
4.552	-0.041
4.554	0.000
4.556	0.030
4.558	0.061
4.560	0.113
4.562	0.168
4.564	0.199
4.566	0.205
4.568	0.204
4.570	0.203
4.572	0.200
4.574	0.194
4.576	0.192
4.578	0.194
4.580	0.196
4.582	0.199
4.584	0.203
4.586	0.204
4.588	0.204
4.590	0.206
4.592	0.208
4.594	0.214
4.596	0.222
4.598	0.228
4.600	0.229
4.602	0.229
4.604	0.230
4.606	0.232
4.608	0.236
4.610	0.239
4.612	0.242
4.614	0.245
4.616	0.243
4.618	0.241
4.620	0.244
4.622	0.248
4.624	0.251
4.626	0.252
4.628	0.252
4.630	0.252
4.632	0.256
4.634	0.259
4.636	0.262
4.638	0.264
4.640	0.266
4.642	0.269
4.644	0.271
4.646	0.271
4.648	0.270
4.650	0.270
4.652	0.272
4.654	0.272
4.656	0.271
4.658	0.271
4.660	0.271
4.662	0.274
4.664	0.280
4.666	0.284
4.668	0.285
4.670	0.287
4.672	0.294
4.674	0.302
4.676	0.307
4.678	0.310
4.680	0.313
4.682	0.315
4.684	0.318
4.686	0.326
4.688	0.338
4.690	0.346
4.692	0.348
4.694	0.349
4.696	0.350
4.698	0.352
4.700	0.355
4.702	0.362
4.704	0.372
4.706	0.381
4.708	0.387
4.710	0.392
4.712	0.400
4.714	0.408
4.716	0.418
4.718	0.427
4.720	0.435
4.722	0.442
4.724	0.448
4.726	0.455
4.728	0.468
4.730	0.484
4.732	0.495
4.734	0.503
4.736	0.511
4.738	0.520
4.740	0.528
4.742	0.537
4.744	0.548
4.746	0.558
4.748	0.567
4.750	0.577
4.752	0.592
4.754	0.608
4.756	0.618
4.758	0.623
4.760	0.628
4.762	0.639
4.764	0.653
4.766	0.667
4.768	0.680
4.770	0.691
4.772	0.698
4.774	0.704
4.776	0.711
4.778	0.724
4.780	0.737
4.782	0.746
4.784	0.752
4.786	0.758
4.788	0.762
4.790	0.758
4.792	0.751
4.794	0.744
4.796	0.737
4.798	0.724
4.800	0.706
4.802	0.689
4.804	0.673
4.806	0.656
4.808	0.641
4.810	0.633
4.812	0.637
4.814	0.654
4.816	0.671
4.818	0.678
4.820	0.675
4.822	0.674
4.824	0.676
4.826	0.676
4.828	0.671
4.830	0.660
4.832	0.641
4.834	0.618
4.836	0.596
4.838	0.576
4.840	0.556
4.842	0.536
4.844	0.515
4.846	0.496
4.848	0.477
4.850	0.454
4.852	0.431
4.854	0.410
4.856	0.393
4.858	0.378
4.860	0.365
4.862	0.352
4.864	0.339
4.866	0.328
4.868	0.318
4.870	0.307
4.872	0.294
4.874	0.280
4.876	0.267
4.878	0.255
4.880	0.246
4.882	0.237
4.884	0.231
4.886	0.227
4.888	0.225
4.890	0.221
4.892	0.220
4.894	0.220
4.896	0.216
4.898	0.210
4.900	0.208
4.902	0.209
4.904	0.212
4.906	0.213
4.908	0.209
4.910	0.205
4.912	0.205
4.914	0.207
4.916	0.206
4.918	0.205
4.920	0.205
4.922	0.208
4.924	0.211
4.926	0.209
4.928	0.205
4.930	0.203
4.932	0.206
4.934	0.211
4.936	0.215
4.938	0.218
4.940	0.220
4.942	0.224
4.944	0.233
4.946	0.240
4.948	0.247
4.950	0.253
4.952	0.256
4.954	0.258
4.956	0.259
4.958	0.256
4.960	0.252
4.962	0.247
4.964	0.243
4.966	0.244
4.968	0.247
4.970	0.249
4.972	0.248
4.974	0.246
4.976	0.248
4.978	0.253
4.980	0.256
4.982	0.258
4.984	0.258
4.986	0.260
4.988	0.263
4.990	0.265
4.992	0.267
4.994	0.266
4.996	0.263
4.998	0.261
5.000	0.259
5.002	0.257
5.004	0.256
5.006	0.257
5.008	0.256
5.010	0.253
5.012	0.247
5.014	0.244
5.016	0.244
5.018	0.248
5.020	0.249
5.022	0.246
5.024	0.242
5.026	0.243
5.028	0.246
5.030	0.246
5.032	0.248
5.034	0.251
5.036	0.250
5.038	0.245
5.040	0.241
5.042	0.240
5.044	0.240
5.046	0.240
5.048	0.243
5.050	0.247
5.052	0.248
5.054	0.246
5.056	0.241
5.058	0.236
5.060	0.233
5.062	0.234
5.064	0.236
5.066	0.232
5.068	0.226
5.070	0.223
5.072	0.224
5.074	0.225
5.076	0.221
5.078	0.216
5.080	0.211
5.082	0.209
5.084	0.211
5.086	0.212
5.088	0.211
5.090	0.209
5.092	0.207
5.094	0.205
5.096	0.200
5.098	0.196
5.100	0.194
5.102	0.195
5.104	0.195
5.106	0.194
5.108	0.196
5.110	0.193
5.112	0.188
5.114	0.187
5.116	0.189
5.118	0.189
5.120	0.189
5.122	0.189
5.124	0.190
5.126	0.190
5.128	0.190
5.130	0.188
5.132	0.186
5.134	0.187
5.136	0.186
5.138	0.184
5.140	0.184
5.142	0.185
5.144	0.185
5.146	0.186
5.148	0.187
5.150	0.189
5.152	0.189
5.154	0.189
5.156	0.190
5.158	0.189
5.160	0.185
5.162	0.179
5.164	0.176
5.166	0.177
5.168	0.179
5.170	0.184
5.172	0.187
5.174	0.186
5.176	0.184
5.178	0.184
5.180	0.185
5.182	0.186
5.184	0.190
5.186	0.193
5.188	0.193
5.190	0.188
5.192	0.183
5.194	0.181
5.196	0.181
5.198	0.180
5.200	0.179
5.202	0.177
5.204	0.178
5.206	0.177
5.208	0.178
5.210	0.182
5.212	0.185
5.214	0.183
5.216	0.182
5.218	0.182
5.220	0.182
5.222	0.184
5.224	0.189
5.226	0.192
5.228	0.192
5.230	0.191
5.232	0.192
5.234	0.195
5.236	0.197
5.238	0.197
5.240	0.195
5.242	0.194
5.244	0.194
5.246	0.196
5.248	0.195
5.250	0.191
5.252	0.189
5.254	0.187
5.256	0.184
5.258	0.184
5.260	0.185
5.262	0.184
5.264	0.184
5.266	0.183
5.268	0.184
5.270	0.186
5.272	0.185
5.274	0.182
5.276	0.183
5.278	0.187
5.280	0.188
5.282	0.187
5.284	0.185
5.286	0.182
5.288	0.182
5.290	0.186
5.292	0.187
5.294	0.188
5.296	0.187
5.298	0.184
5.300	0.180
5.302	0.176
5.304	0.174
5.306	0.176
5.308	0.180
5.310	0.183
5.312	0.183
5.314	0.181
5.316	0.180
5.318	0.178
5.320	0.176
5.322	0.174
5.324	0.173
5.326	0.173
5.328	0.172
5.330	0.173
5.332	0.175
5.334	0.177
5.336	0.178
5.338	0.176
5.340	0.177
5.342	0.181
5.344	0.183
5.346	0.183
5.348	0.183
5.350	0.185
5.352	0.190
5.354	0.191
5.356	0.188
5.358	0.185
5.360	0.184
5.362	0.185
5.364	0.185
5.366	0.186
5.368	0.186
5.370	0.187
5.372	0.187
5.374	0.185
5.376	0.184
5.378	0.183
5.380	0.182
5.382	0.181
5.384	0.182
5.386	0.182
5.388	0.182
5.390	0.183
5.392	0.182
5.394	0.181
5.396	0.180
5.398	0.179
5.400	0.179
5.402	0.181
5.404	0.186
5.406	0.189
5.408	0.189
5.410	0.188
5.412	0.189
5.414	0.191
5.416	0.192
5.418	0.193
5.420	0.192
5.422	0.191
5.424	0.193
5.426	0.195
5.428	0.195
5.430	0.192
5.432	0.192
5.434	0.191
5.436	0.190
5.438	0.189
5.440	0.189
5.442	0.191
5.444	0.193
5.446	0.194
5.448	0.193
5.450	0.191
5.452	0.189
5.454	0.188
5.456	0.187
5.458	0.186
5.460	0.186
5.462	0.186
5.464	0.186
5.466	0.185
5.468	0.184
5.470	0.184
5.472	0.184
5.474	0.184
5.476	0.183
5.478	0.183
5.480	0.181
5.482	0.178
5.484	0.175
5.486	0.175
5.488	0.179
5.490	0.183
5.492	0.186
5.494	0.188
5.496	0.185
5.498	0.183
5.500	0.185
5.502	0.184
5.504	0.186
5.506	0.189
5.508	0.190
5.510	0.188
5.512	0.187
5.514	0.190
5.516	0.190
5.518	0.189
5.520	0.188
5.522	0.187
5.524	0.189
5.526	0.190
5.528	0.190
5.530	0.190
5.532	0.189
5.534	0.188
5.536	0.187
5.538	0.187
5.540	0.187
5.542	0.186
5.544	0.184
5.546	0.180
5.548	0.177
5.550	0.177
5.552	0.178
5.554	0.178
5.556	0.179
5.558	0.179
5.560	0.178
5.562	0.177
5.564	0.174
5.566	0.172
5.568	0.171
5.570	0.171
5.572	0.172
5.574	0.170
5.576	0.169
5.578	0.170
5.580	0.169
5.582	0.168
5.584	0.171
5.586	0.174
5.588	0.174
5.590	0.173
5.592	0.172
5.594	0.171
5.596	0.171
5.598	0.174
5.600	0.177
5.602	0.177
5.604	0.175
5.606	0.175
5.608	0.177
5.610	0.181
5.612	0.183
5.614	0.185
5.616	0.186
5.618	0.183
5.620	0.182
5.622	0.183
5.624	0.185
5.626	0.190
5.628	0.194
5.630	0.191
5.632	0.188
5.634	0.191
5.636	0.200
5.638	0.215
5.640	0.227
5.642	0.229
5.644	0.229
5.646	0.233
5.648	0.242
5.650	0.248
5.652	0.252
5.654	0.251
5.656	0.246
5.658	0.240
5.660	0.236
5.662	0.237
5.664	0.242
5.666	0.247
5.668	0.252
5.670	0.257
5.672	0.258
5.674	0.261
5.676	0.271
5.678	0.282
5.680	0.284
5.682	0.278
5.684	0.272
5.686	0.267
5.688	0.258
5.690	0.243
5.692	0.231
5.694	0.228
5.696	0.230
5.698	0.235
5.700	0.240
5.702	0.243
5.704	0.240
5.706	0.234
5.708	0.226
5.710	0.218
5.712	0.211
5.714	0.202
5.716	0.191
5.718	0.182
5.720	0.179
5.722	0.180
5.724	0.184
5.726	0.184
5.728	0.179
5.730	0.173
5.732	0.175
5.734	0.179
5.736	0.180
5.738	0.179
5.740	0.178
5.742	0.178
5.744	0.178
5.746	0.176
5.748	0.174
5.750	0.172
5.752	0.173
5.754	0.174
5.756	0.173
5.758	0.173
5.760	0.175
5.762	0.177
5.764	0.179
5.766	0.180
5.768	0.181
5.770	0.181
5.772	0.179
5.774	0.177
5.776	0.176
5.778	0.176
5.780	0.177
5.782	0.176
5.784	0.175
5.786	0.174
5.788	0.176
5.790	0.179
5.792	0.181
5.794	0.183
5.796	0.184
5.798	0.184
5.800	0.180
5.802	0.173
5.804	0.163
5.806	0.144
5.808	0.102
5.810	0.022
5.812	-0.089
5.814	-0.201
5.816	-0.268
5.818	-0.277
5.820	-0.260
5.822	-0.231
5.824	-0.164
5.826	-0.061
5.828	0.040
5.830	0.155
5.832	0.342
5.834	0.647
5.836	1.092
5.838	1.611
5.840	2.092
5.842	2.486
5.844	2.809
5.846	3.086
5.848	3.292
5.850	3.366
5.852	3.274
5.854	3.001
5.856	2.555
5.858	2.021
5.860	1.492
5.862	1.002
5.864	0.601
5.866	0.334
5.868	0.157
5.870	0.007
5.872	-0.130
5.874	-0.231
5.876	-0.268
5.878	-0.244
5.880	-0.189
5.882	-0.129
5.884	-0.075
5.886	-0.035
5.888	-0.004
5.890	0.036
5.892	0.100
5.894	0.155
5.896	0.171
5.898	0.165
5.900	0.154
5.902	0.144
5.904	0.135
5.906	0.130
5.908	0.129
5.910	0.128
5.912	0.127
5.914	0.127
5.916	0.127
5.918	0.130
5.920	0.136
5.922	0.139
5.924	0.139
5.926	0.139
5.928	0.140
5.930	0.140
5.932	0.139
5.934	0.140
5.936	0.144
5.938	0.146
5.940	0.146
5.942	0.148
5.944	0.151
5.946	0.154
5.948	0.157
5.950	0.159
5.952	0.161
5.954	0.162
5.956	0.165
5.958	0.169
5.960	0.172
5.962	0.174
5.964	0.177
5.966	0.182
5.968	0.187
5.970	0.191
5.972	0.196
5.974	0.200
5.976	0.202
5.978	0.203
5.980	0.204
5.982	0.204
5.984	0.206
5.986	0.212
5.988	0.217
5.990	0.219
5.992	0.220
5.994	0.226
5.996	0.231
5.998	0.233
6.000	0.234
6.002	0.236
6.004	0.241
6.006	0.248
6.008	0.250
6.010	0.250
6.012	0.250
6.014	0.255
6.016	0.260
6.018	0.265
6.020	0.271
6.022	0.277
6.024	0.282
6.026	0.286
6.028	0.292
6.030	0.301
6.032	0.307
6.034	0.309
6.036	0.310
6.038	0.310
6.040	0.312
6.042	0.322
6.044	0.336
6.046	0.347
6.048	0.352
6.050	0.358
6.052	0.366
6.054	0.377
6.056	0.386
6.058	0.393
6.060	0.402
6.062	0.412
6.064	0.421
6.066	0.428
6.068	0.434
6.070	0.441
6.072	0.449
6.074	0.454
6.076	0.462
6.078	0.473
6.080	0.483
6.082	0.494
6.084	0.506
6.086	0.518
6.088	0.528
6.090	0.537
6.092	0.547
6.094	0.558
6.096	0.570
6.098	0.583
6.100	0.594
6.102	0.604
6.104	0.614
6.106	0.625
6.108	0.636
6.110	0.647
6.112	0.659
6.114	0.670
6.116	0.678
6.118	0.686
6.120	0.693
6.122	0.702
6.124	0.713
6.126	0.724
6.128	0.730
6.130	0.735
6.132	0.739
6.134	0.742
6.136	0.743
6.138	0.741
6.140	0.735
6.142	0.729
6.144	0.723
6.146	0.716
6.148	0.707
6.150	0.697
6.152	0.683
6.154	0.667
6.156	0.651
6.158	0.632
6.160	0.612
6.162	0.591
6.164	0.570
6.166	0.547
6.168	0.521
6.170	0.497
6.172	0.476
6.174	0.455
6.176	0.433
6.178	0.411
6.180	0.388
6.182	0.364
6.184	0.341
6.186	0.318
6.188	0.300
6.190	0.285
6.192	0.267
6.194	0.247
6.196	0.228
6.198	0.211
6.200	0.198
6.202	0.187
6.204	0.174
6.206	0.162
6.208	0.152
6.210	0.143
6.212	0.133
6.214	0.125
6.216	0.120
6.218	0.114
6.220	0.109
6.222	0.103
6.224	0.099
6.226	0.095
6.228	0.089
6.230	0.084
6.232	0.084
6.234	0.086
6.236	0.088
6.238	0.085
6.240	0.082
6.242	0.082
6.244	0.083
6.246	0.082
6.248	0.080
6.250	0.079
6.252	0.079
6.254	0.081
6.256	0.080
6.258	0.078
6.260	0.076
6.262	0.075
6.264	0.076
6.266	0.078
6.268	0.081
6.270	0.085
6.272	0.087
6.274	0.088
6.276	0.090
6.278	0.094
6.280	0.095
6.282	0.092
6.284	0.089
6.286	0.090
6.288	0.094
6.290	0.098
6.292	0.098
6.294	0.095
6.296	0.092
6.298	0.092
6.300	0.093
6.302	0.094
6.304	0.094
6.306	0.092
6.308	0.092
6.310	0.094
6.312	0.094
6.314	0.095
6.316	0.095
6.318	0.094
6.320	0.093
6.322	0.093
6.324	0.094
6.326	0.096
6.328	0.099
6.330	0.100
6.332	0.098
6.334	0.097
6.336	0.099
6.338	0.101
6.340	0.102
6.342	0.101
6.344	0.103
6.346	0.108
6.348	0.112
6.350	0.114
6.352	0.112
6.354	0.109
6.356	0.109
6.358	0.111
6.360	0.112
6.362	0.113
6.364	0.114
6.366	0.115
6.368	0.114
6.370	0.113
6.372	0.113
6.374	0.113
6.376	0.113
6.378	0.115
6.380	0.115
6.382	0.116
6.384	0.119
6.386	0.118
6.388	0.112
6.390	0.107
6.392	0.105
6.394	0.102
6.396	0.099
6.398	0.098
6.400	0.097
6.402	0.096
6.404	0.097
6.406	0.097
6.408	0.095
6.410	0.089
6.412	0.084
6.414	0.083
6.416	0.084
6.418	0.086
6.420	0.084
6.422	0.080
6.424	0.077
6.426	0.075
6.428	0.074
6.430	0.073
6.432	0.070
6.434	0.065
6.436	0.062
6.438	0.059
6.440	0.059
6.442	0.058
6.444	0.056
6.446	0.052
6.448	0.051
6.450	0.052
6.452	0.052
6.454	0.047
6.456	0.042
6.458	0.038
6.460	0.036
6.462	0.033
6.464	0.030
6.466	0.029
6.468	0.028
6.470	0.027
6.472	0.026
6.474	0.025
6.476	0.023
6.478	0.018
6.480	0.013
6.482	0.008
6.484	0.004
6.486	0.002
6.488	0.003
6.490	0.004
6.492	0.001
6.494	-0.002
6.496	-0.002
6.498	-0.002
6.500	-0.003
6.502	-0.005
6.504	-0.005
6.506	-0.007
6.508	-0.009
6.510	-0.010
6.512	-0.009
6.514	-0.009
6.516	-0.009
6.518	-0.009
6.520	-0.009
6.522	-0.010
6.524	-0.011
6.526	-0.011
6.528	-0.010
6.530	-0.006
6.532	-0.002
6.534	-0.001
6.536	-0.003
6.538	-0.008
6.540	-0.015
6.542	-0.020
6.544	-0.020
6.546	-0.018
6.548	-0.016
6.550	-0.016
6.552	-0.016
6.554	-0.013
6.556	-0.010
6.558	-0.010
6.560	-0.013
6.562	-0.014
6.564	-0.016
6.566	-0.020
6.568	-0.024
6.570	-0.024
6.572	-0.020
6.574	-0.016
6.576	-0.013
6.578	-0.016
6.580	-0.019
6.582	-0.020
6.584	-0.023
6.586	-0.028
6.588	-0.033
6.590	-0.034
6.592	-0.036
6.594	-0.038
6.596	-0.040
6.598	-0.039
6.600	-0.038
6.602	-0.041
6.604	-0.048
6.606	-0.053
6.608	-0.054
6.610	-0.053
6.612	-0.052
6.614	-0.049
6.616	-0.047
6.618	-0.044
6.620	-0.040
6.622	-0.039
6.624	-0.040
6.626	-0.041
6.628	-0.043
6.630	-0.044
6.632	-0.045
6.634	-0.048
6.636	-0.053
6.638	-0.056
6.640	-0.057
6.642	-0.060
6.644	-0.064
6.646	-0.069
6.648	-0.073
6.650	-0.073
6.652	-0.074
6.654	-0.074
6.656	-0.074
6.658	-0.076
6.660	-0.079
6.662	-0.083
6.664	-0.085
6.666	-0.084
6.668	-0.081
6.670	-0.078
6.672	-0.075
6.674	-0.072
6.676	-0.070
6.678	-0.068
6.680	-0.070
6.682	-0.075
6.684	-0.076
6.686	-0.071
6.688	-0.063
6.690	-0.056
6.692	-0.052
6.694	-0.050
6.696	-0.049
6.698	-0.047
6.700	-0.048
6.702	-0.053
6.704	-0.056
6.706	-0.056
6.708	-0.055
6.710	-0.055
6.712	-0.054
6.714	-0.054
6.716	-0.055
6.718	-0.057
6.720	-0.058
6.722	-0.059
6.724	-0.061
6.726	-0.062
6.728	-0.065
6.730	-0.066
6.732	-0.066
6.734	-0.065
6.736	-0.064
6.738	-0.064
6.740	-0.068
6.742	-0.074
6.744	-0.078
6.746	-0.081
6.748	-0.081
6.750	-0.081
6.752	-0.082
6.754	-0.085
6.756	-0.089
6.758	-0.091
6.760	-0.090
6.762	-0.090
6.764	-0.090
6.766	-0.088
6.768	-0.086
6.770	-0.084
6.772	-0.084
6.774	-0.083
6.776	-0.082
6.778	-0.080
6.780	-0.079
6.782	-0.080
6.784	-0.080
6.786	-0.077
6.788	-0.075
6.790	-0.075
6.792	-0.080
6.794	-0.084
6.796	-0.086
6.798	-0.087
6.800	-0.092
6.802	-0.096
6.804	-0.092
6.806	-0.085
6.808	-0.081
6.810	-0.077
6.812	-0.075
6.814	-0.074
6.816	-0.070
6.818	-0.066
6.820	-0.062
6.822	-0.059
6.824	-0.060
6.826	-0.065
6.828	-0.071
6.830	-0.070
6.832	-0.062
6.834	-0.056
6.836	-0.058
6.838	-0.059
6.840	-0.052
6.842	-0.039
6.844	-0.028
6.846	-0.020
6.848	-0.015
6.850	-0.014
6.852	-0.019
6.854	-0.028
6.856	-0.037
6.858	-0.043
6.860	-0.042
6.862	-0.038
6.864	-0.036
6.866	-0.033
6.868	-0.028
6.870	-0.031
6.872	-0.046
6.874	-0.064
6.876	-0.078
6.878	-0.084
6.880	-0.088
6.882	-0.093
6.884	-0.094
6.886	-0.095
6.888	-0.097
6.890	-0.099
6.892	-0.102
6.894	-0.108
6.896	-0.111
6.898	-0.109
6.900	-0.107
6.902	-0.110
6.904	-0.113
6.906	-0.116
6.908	-0.118
6.910	-0.119
6.912	-0.119
6.914	-0.120
6.916	-0.121
6.918	-0.119
6.920	-0.116
6.922	-0.116
6.924	-0.119
6.926	-0.122
6.928	-0.128
6.930	-0.134
6.932	-0.138
6.934	-0.135
6.936	-0.129
6.938	-0.125
6.940	-0.121
6.942	-0.117
6.944	-0.115
6.946	-0.116
6.948	-0.119
6.950	-0.124
6.952	-0.125
6.954	-0.124
6.956	-0.122
6.958	-0.124
6.960	-0.124
6.962	-0.125
6.964	-0.130
6.966	-0.150
6.968	-0.199
6.970	-0.282
6.972	-0.388
6.974	-0.490
6.976	-0.548
6.978	-0.556
6.980	-0.545
6.982	-0.508
6.984	-0.427
6.986	-0.324
6.988	-0.231
6.990	-0.125
6.992	0.051
6.994	0.351
6.996	0.790
6.998	1.288
7.000	1.738
7.002	2.112
7.004	2.434
7.006	2.700
7.008	2.868
7.010	2.907
7.012	2.794
7.014	2.514
7.016	2.100
7.018	1.615
7.020	1.110
7.022	0.641
7.024	0.282
7.026	0.042
7.028	-0.130
7.030	-0.271
7.032	-0.390
7.034	-0.483
7.036	-0.545
7.038	-0.565
7.040	-0.538
7.042	-0.482
7.044	-0.423
7.046	-0.376
7.048	-0.342
7.050	-0.313
7.052	-0.275
7.054	-0.217
7.056	-0.162
7.058	-0.139
7.060	-0.140
7.062	-0.145
7.064	-0.148
7.066	-0.148
7.068	-0.149
7.070	-0.151
7.072	-0.150
7.074	-0.145
7.076	-0.141
7.078	-0.138
7.080	-0.135
7.082	-0.132
7.084	-0.130
7.086	-0.129
7.088	-0.127
7.090	-0.126
7.092	-0.127
7.094	-0.129
7.096	-0.128
7.098	-0.126
7.100	-0.124
7.102	-0.121
7.104	-0.118
7.106	-0.118
7.108	-0.121
7.110	-0.126
7.112	-0.129
7.114	-0.127
7.116	-0.123
7.118	-0.120
7.120	-0.116
7.122	-0.115
7.124	-0.118
7.126	-0.118
7.128	-0.117
7.130	-0.117
7.132	-0.117
7.134	-0.113
7.136	-0.106
7.138	-0.101
7.140	-0.096
7.142	-0.093
7.144	-0.094
7.146	-0.094
7.148	-0.092
7.150	-0.090
7.152	-0.090
7.154	-0.091
7.156	-0.090
7.158	-0.084
7.160	-0.076
7.162	-0.071
7.164	-0.071
7.166	-0.071
7.168	-0.070
7.170	-0.067
7.172	-0.066
7.174	-0.066
7.176	-0.064
7.178	-0.058
7.180	-0.050
7.182	-0.043
7.184	-0.037
7.186	-0.033
7.188	-0.029
7.190	-0.023
7.192	-0.018
7.194	-0.014
7.196	-0.010
7.198	-0.007
7.200	-0.002
7.202	0.002
7.204	0.008
7.206	0.018
7.208	0.031
7.210	0.041
7.212	0.049
7.214	0.055
7.216	0.060
7.218	0.064
7.220	0.070
7.222	0.081
7.224	0.093
7.226	0.103
7.228	0.113
7.230	0.124
7.232	0.137
7.234	0.150
7.236	0.163
7.238	0.175
7.240	0.185
7.242	0.195
7.244	0.208
7.246	0.228
7.248	0.246
7.250	0.258
7.252	0.268
7.254	0.279
7.256	0.287
7.258	0.296
7.260	0.307
7.262	0.316
7.264	0.325
7.266	0.335
7.268	0.346
7.270	0.358
7.272	0.371
7.274	0.378
7.276	0.381
7.278	0.386
7.280	0.394
7.282	0.402
7.284	0.406
7.286	0.409
7.288	0.416
7.290	0.426
7.292	0.430
7.294	0.427
7.296	0.420
7.298	0.412
7.300	0.405
7.302	0.401
7.304	0.395
7.306	0.385
7.308	0.373
7.310	0.358
7.312	0.341
7.314	0.323
7.316	0.304
7.318	0.286
7.320	0.267
7.322	0.244
7.324	0.218
7.326	0.193
7.328	0.173
7.330	0.153
7.332	0.133
7.334	0.108
7.336	0.084
7.338	0.061
7.340	0.044
7.342	0.027
7.344	0.009
7.346	-0.010
7.348	-0.029
7.350	-0.050
7.352	-0.070
7.354	-0.085
7.356	-0.098
7.358	-0.110
7.360	-0.123
7.362	-0.138
7.364	-0.152
7.366	-0.162
7.368	-0.170
7.370	-0.177
7.372	-0.183
7.374	-0.190
7.376	-0.198
7.378	-0.204
7.380	-0.210
7.382	-0.217
7.384	-0.223
7.386	-0.225
7.388	-0.225
7.390	-0.223
7.392	-0.221
7.394	-0.220
7.396	-0.222
7.398	-0.228
7.400	-0.236
7.402	-0.241
7.404	-0.242
7.406	-0.244
7.408	-0.243
7.410	-0.239
7.412	-0.234
7.414	-0.231
7.416	-0.230
7.418	-0.232
7.420	-0.235
7.422	-0.235
7.424	-0.233
7.426	-0.232
7.428	-0.232
7.430	-0.230
7.432	-0.227
7.434	-0.225
7.436	-0.225
7.438	-0.225
7.440	-0.224
7.442	-0.222
7.444	-0.221
7.446	-0.220
7.448	-0.218
7.450	-0.218
7.452	-0.216
7.454	-0.215
7.456	-0.213
7.458	-0.213
7.460	-0.217
7.462	-0.220
7.464	-0.219
7.466	-0.215
7.468	-0.212
7.470	-0.210
7.472	-0.207
7.474	-0.202
7.476	-0.195
7.478	-0.191
7.480	-0.191
7.482	-0.191
7.484	-0.190
7.486	-0.188
7.488	-0.189
7.490	-0.192
7.492	-0.195
7.494	-0.195
7.496	-0.194
7.498	-0.193
7.500	-0.194
7.502	-0.195
7.504	-0.198
7.506	-0.200
7.508	-0.198
7.510	-0.196
7.512	-0.195
7.514	-0.193
7.516	-0.188
7.518	-0.185
7.520	-0.187
7.522	-0.193
7.524	-0.197
7.526	-0.200
7.528	-0.201
7.530	-0.201
7.532	-0.202
7.534	-0.204
7.536	-0.205
7.538	-0.205
7.540	-0.203
7.542	-0.200
7.544	-0.200
7.546	-0.203
7.548	-0.206
7.550	-0.209
7.552	-0.209
7.554	-0.205
7.556	-0.199
7.558	-0.197
7.560	-0.199
7.562	-0.200
7.564	-0.200
7.566	-0.200
7.568	-0.201
7.570	-0.201
7.572	-0.198
7.574	-0.193
7.576	-0.192
7.578	-0.194
7.580	-0.197
7.582	-0.198
7.584	-0.199
7.586	-0.198
7.588	-0.196
7.590	-0.194
7.592	-0.193
7.594	-0.193
7.596	-0.193
7.598	-0.194
7.600	-0.195
7.602	-0.198
7.604	-0.203
7.606	-0.205
7.608	-0.205
7.610	-0.205
7.612	-0.208
7.614	-0.211
7.616	-0.213
7.618	-0.211
7.620	-0.210
7.622	-0.211
7.624	-0.213
7.626	-0.217
7.628	-0.219
7.630	-0.218
7.632	-0.217
7.634	-0.218
7.636	-0.220
7.638	-0.220
7.640	-0.220
7.642	-0.221
7.644	-0.221
7.646	-0.219
7.648	-0.217
7.650	-0.215
7.652	-0.215
7.654	-0.216
7.656	-0.217
7.658	-0.218
7.660	-0.219
7.662	-0.221
7.664	-0.223
7.666	-0.223
7.668	-0.219
7.670	-0.215
7.672	-0.214
7.674	-0.213
7.676	-0.211
7.678	-0.210
7.680	-0.212
7.682	-0.215
7.684	-0.217
7.686	-0.219
7.688	-0.219
7.690	-0.216
7.692	-0.214
7.694	-0.211
7.696	-0.209
7.698	-0.212
7.700	-0.216
7.702	-0.217
7.704	-0.213
7.706	-0.208
7.708	-0.207
7.710	-0.209
7.712	-0.210
7.714	-0.209
7.716	-0.206
7.718	-0.205
7.720	-0.208
7.722	-0.210
7.724	-0.208
7.726	-0.204
7.728	-0.201
7.730	-0.198
7.732	-0.196
7.734	-0.196
7.736	-0.198
7.738	-0.198
7.740	-0.198
7.742	-0.201
7.744	-0.202
7.746	-0.201
7.748	-0.199
7.750	-0.199
7.752	-0.198
7.754	-0.195
7.756	-0.194
7.758	-0.195
7.760	-0.197
7.762	-0.197
7.764	-0.196
7.766	-0.195
7.768	-0.195
7.770	-0.194
7.772	-0.191
7.774	-0.191
7.776	-0.192
7.778	-0.193
7.780	-0.195
7.782	-0.196
7.784	-0.198
7.786	-0.199
7.788	-0.199
7.790	-0.197
7.792	-0.194
7.794	-0.196
7.796	-0.199
7.798	-0.199
7.800	-0.200
7.802	-0.200
7.804	-0.199
7.806	-0.196
7.808	-0.195
7.810	-0.193
7.812	-0.194
7.814	-0.197
7.816	-0.199
7.818	-0.199
7.820	-0.197
7.822	-0.194
7.824	-0.194
7.826	-0.197
7.828	-0.198
7.830	-0.198
7.832	-0.200
7.834	-0.201
7.836	-0.201
7.838	-0.202
7.840	-0.202
7.842	-0.202
7.844	-0.200
7.846	-0.196
7.848	-0.193
7.850	-0.191
7.852	-0.189
7.854	-0.187
7.856	-0.185
7.858	-0.185
7.860	-0.186
7.862	-0.188
7.864	-0.188
7.866	-0.189
7.868	-0.189
7.870	-0.186
7.872	-0.182
7.874	-0.179
7.876	-0.178
7.878	-0.179
7.880	-0.181
7.882	-0.182
7.884	-0.185
7.886	-0.185
7.888	-0.183
7.890	-0.182
7.892	-0.181
7.894	-0.177
7.896	-0.173
7.898	-0.173
7.900	-0.175
7.902	-0.176
7.904	-0.175
7.906	-0.174
7.908	-0.170
7.910	-0.166
7.912	-0.166
7.914	-0.168
7.916	-0.168
7.918	-0.167
7.920	-0.168
7.922	-0.169
7.924	-0.168
7.926	-0.166
7.928	-0.164
7.930	-0.161
7.932	-0.158
7.934	-0.156
7.936	-0.155
7.938	-0.156
7.940	-0.157
7.942	-0.157
7.944	-0.157
7.946	-0.159
7.948	-0.157
7.950	-0.155
7.952	-0.154
7.954	-0.153
7.956	-0.150
7.958	-0.148
7.960	-0.147
7.962	-0.146
7.964	-0.145
7.966	-0.145
7.968	-0.144
7.970	-0.143
7.972	-0.144
7.974	-0.147
7.976	-0.148
7.978	-0.146
7.980	-0.146
7.982	-0.146
7.984	-0.145
7.986	-0.142
7.988	-0.139
7.990	-0.138
7.992	-0.140
7.994	-0.140
7.996	-0.139
7.998	-0.139
8.000	-0.142
8.002	-0.144
8.004	-0.146
8.006	-0.147
8.008	-0.146
8.010	-0.145
8.012	-0.147
8.014	-0.151
8.016	-0.154
8.018	-0.157
8.020	-0.157
8.022	-0.154
8.024	-0.150
8.026	-0.147
8.028	-0.144
8.030	-0.141
8.032	-0.140
8.034	-0.142
8.036	-0.142
8.038	-0.141
8.040	-0.140
8.042	-0.141
8.044	-0.141
8.046	-0.137
8.048	-0.129
8.050	-0.120
8.052	-0.115
8.054	-0.115
8.056	-0.114
8.058	-0.107
8.060	-0.099
8.062	-0.095
8.064	-0.094
8.066	-0.093
8.068	-0.093
8.070	-0.091
8.072	-0.088
8.074	-0.087
8.076	-0.081
8.078	-0.074
8.080	-0.069
8.082	-0.065
8.084	-0.060
8.086	-0.050
8.088	-0.033
8.090	-0.019
8.092	-0.016
8.094	-0.023
8.096	-0.029
8.098	-0.035
8.100	-0.044
8.102	-0.054
8.104	-0.060
8.106	-0.058
8.108	-0.053
8.110	-0.048
8.112	-0.047
8.114	-0.052
8.116	-0.060
8.118	-0.070
8.120	-0.081
8.122	-0.091
8.124	-0.097
8.126	-0.105
8.128	-0.112
8.130	-0.113
8.132	-0.108
8.134	-0.106
8.136	-0.109
8.138	-0.115
8.140	-0.118
8.142	-0.119
8.144	-0.119
8.146	-0.119
8.148	-0.118
8.150	-0.115
8.152	-0.114
8.154	-0.114
8.156	-0.114
8.158	-0.113
8.160	-0.115
8.162	-0.118
8.164	-0.118
8.166	-0.119
8.168	-0.120
8.170	-0.120
8.172	-0.119
8.174	-0.118
8.176	-0.117
8.178	-0.117
8.180	-0.119
8.182	-0.121
8.184	-0.122
8.186	-0.123
8.188	-0.120
8.190	-0.117
8.192	-0.116
8.194	-0.115
8.196	-0.116
8.198	-0.115
8.200	-0.114
8.202	-0.113
8.204	-0.113
8.206	-0.112
8.208	-0.109
8.210	-0.103
8.212	-0.096
8.214	-0.093
8.216	-0.097
8.218	-0.108
8.220	-0.127
8.222	-0.170
8.224	-0.251
8.226	-0.358
8.228	-0.459
8.230	-0.515
8.232	-0.519
8.234	-0.502
8.236	-0.464
8.238	-0.382
8.240	-0.274
8.242	-0.177
8.244	-0.069
8.246	0.107
8.248	0.402
8.250	0.836
8.252	1.339
8.254	1.802
8.256	2.184
8.258	2.506
8.260	2.775
8.262	2.955
8.264	3.006
8.266	2.900
8.268	2.623
8.270	2.201
8.272	1.705
8.274	1.199
8.276	0.727
8.278	0.354
8.280	0.102
8.282	-0.077
8.284	-0.222
8.286	-0.346
8.288	-0.445
8.290	-0.503
8.292	-0.507
8.294	-0.464
8.296	-0.405
8.298	-0.350
8.300	-0.305
8.302	-0.271
8.304	-0.236
8.306	-0.183
8.308	-0.119
8.310	-0.078
8.312	-0.070
8.314	-0.076
8.316	-0.081
8.318	-0.084
8.320	-0.086
8.322	-0.088
8.324	-0.089
8.326	-0.089
8.328	-0.088
8.330	-0.083
8.332	-0.077
8.334	-0.073
8.336	-0.067
8.338	-0.061
8.340	-0.060
8.342	-0.061
8.344	-0.063
8.346	-0.063
8.348	-0.061
8.350	-0.057
8.352	-0.052
8.354	-0.049
8.356	-0.046
8.358	-0.045
8.360	-0.042
8.362	-0.037
8.364	-0.030
8.366	-0.024
8.368	-0.017
8.370	-0.009
8.372	-0.002
8.374	0.004
8.376	0.011
8.378	0.019
8.380	0.025
8.382	0.030
8.384	0.034
8.386	0.035
8.388	0.036
8.390	0.039
8.392	0.042
8.394	0.043
8.396	0.046
8.398	0.052
8.400	0.058
8.402	0.060
8.404	0.062
8.406	0.064
8.408	0.067
8.410	0.072
8.412	0.078
8.414	0.084
8.416	0.090
8.418	0.096
8.420	0.098
8.422	0.099
8.424	0.102
8.426	0.107
8.428	0.112
8.430	0.117
8.432	0.123
8.434	0.128
8.436	0.134
8.438	0.139
8.440	0.144
8.442	0.148
8.444	0.150
8.446	0.151
8.448	0.157
8.450	0.168
8.452	0.181
8.454	0.193
8.456	0.204
8.458	0.211
8.460	0.216
8.462	0.222
8.464	0.230
8.466	0.239
8.468	0.248
8.470	0.260
8.472	0.274
8.474	0.286
8.476	0.292
8.478	0.295
8.480	0.298
8.482	0.304
8.484	0.313
8.486	0.323
8.488	0.332
8.490	0.341
8.492	0.353
8.494	0.365
8.496	0.374
8.498	0.382
8.500	0.395
8.502	0.409
8.504	0.422
8.506	0.431
8.508	0.439
8.510	0.448
8.512	0.459
8.514	0.473
8.516	0.484
8.518	0.494
8.520	0.504
8.522	0.515
8.524	0.528
8.526	0.539
8.528	0.546
8.530	0.556
8.532	0.564
8.534	0.570
8.536	0.574
8.538	0.577
8.540	0.582
8.542	0.587
8.544	0.594
8.546	0.601
8.548	0.605
8.550	0.604
8.552	0.601
8.554	0.598
8.556	0.592
8.558	0.585
8.560	0.578
8.562	0.571
8.564	0.563
8.566	0.551
8.568	0.534
8.570	0.513
8.572	0.494
8.574	0.474
8.576	0.454
8.578	0.431
8.580	0.409
8.582	0.386
8.584	0.362
8.586	0.339
8.588	0.318
8.590	0.295
8.592	0.273
8.594	0.252
8.596	0.231
8.598	0.213
8.600	0.194
8.602	0.172
8.604	0.151
8.606	0.133
8.608	0.116
8.610	0.102
8.612	0.089
8.614	0.077
8.616	0.065
8.618	0.053
8.620	0.044
8.622	0.036
8.624	0.029
8.626	0.021
8.628	0.013
8.630	0.007
8.632	0.003
8.634	-0.002
8.636	-0.006
8.638	-0.011
8.640	-0.016
8.642	-0.020
8.644	-0.023
8.646	-0.025
8.648	-0.026
8.650	-0.029
8.652	-0.033
8.654	-0.037
8.656	-0.041
8.658	-0.044
8.660	-0.045
8.662	-0.047
8.664	-0.051
8.666	-0.052
8.668	-0.051
8.670	-0.051
8.672	-0.053
8.674	-0.054
8.676	-0.053
8.678	-0.052
8.680	-0.052
8.682	-0.052
8.684	-0.054
8.686	-0.053
8.688	-0.050
8.690	-0.047
8.692	-0.043
8.694	-0.040
8.696	-0.036
8.698	-0.034
8.700	-0.032
8.702	-0.032
8.704	-0.032
8.706	-0.033
8.708	-0.034
8.710	-0.034
8.712	-0.033
8.714	-0.032
8.716	-0.032
8.718	-0.033
8.720	-0.036
8.722	-0.039
8.724	-0.042
8.726	-0.043
8.728	-0.044
8.730	-0.044
8.732	-0.042
8.734	-0.040
8.736	-0.040
8.738	-0.044
8.740	-0.049
8.742	-0.050
8.744	-0.050
8.746	-0.052
8.748	-0.055
8.750	-0.057
8.752	-0.059
8.754	-0.060
8.756	-0.059
8.758	-0.061
8.760	-0.064
8.762	-0.066
8.764	-0.065
8.766	-0.062
8.768	-0.058
8.770	-0.057
8.772	-0.057
8.774	-0.055
8.776	-0.053
8.778	-0.050
8.780	-0.049
8.782	-0.049
8.784	-0.048
8.786	-0.045
8.788	-0.043
8.790	-0.042
8.792	-0.043
8.794	-0.046
8.796	-0.050
8.798	-0.052
8.800	-0.054
8.802	-0.052
8.804	-0.047
8.806	-0.044
8.808	-0.044
8.810	-0.046
8.812	-0.049
8.814	-0.049
8.816	-0.047
8.818	-0.047
8.820	-0.049
8.822	-0.051
8.824	-0.051
8.826	-0.051
8.828	-0.052
8.830	-0.052
8.832	-0.051
8.834	-0.048
8.836	-0.046
8.838	-0.047
8.840	-0.050
8.842	-0.052
8.844	-0.053
8.846	-0.054
8.848	-0.053
8.850	-0.051
8.852	-0.050
8.854	-0.050
8.856	-0.049
8.858	-0.051
8.860	-0.050
8.862	-0.049
8.864	-0.049
8.866	-0.050
8.868	-0.050
8.870	-0.048
8.872	-0.049
8.874	-0.050
8.876	-0.052
8.878	-0.052
8.880	-0.050
8.882	-0.047
8.884	-0.049
8.886	-0.053
8.888	-0.056
8.890	-0.057
8.892	-0.055
8.894	-0.053
8.896	-0.054
8.898	-0.056
8.900	-0.055
8.902	-0.056
8.904	-0.057
8.906	-0.060
8.908	-0.059
8.910	-0.059
8.912	-0.060
8.914	-0.062
8.916	-0.063
8.918	-0.062
8.920	-0.062
8.922	-0.062
8.924	-0.064
8.926	-0.065
8.928	-0.065
8.930	-0.063
8.932	-0.059
8.934	-0.058
8.936	-0.058
8.938	-0.060
8.940	-0.061
8.942	-0.061
8.944	-0.060
8.946	-0.059
8.948	-0.060
8.950	-0.061
8.952	-0.061
8.954	-0.061
8.956	-0.062
8.958	-0.064
8.960	-0.065
8.962	-0.067
8.964	-0.069
8.966	-0.069
8.968	-0.069
8.970	-0.071
8.972	-0.072
8.974	-0.073
8.976	-0.074
8.978	-0.073
8.980	-0.072
8.982	-0.073
8.984	-0.073
8.986	-0.072
8.988	-0.072
8.990	-0.071
8.992	-0.069
8.994	-0.068
8.996	-0.067
8.998	-0.068
9.000	-0.068
9.002	-0.067
9.004	-0.068
9.006	-0.070
9.008	-0.073
9.010	-0.075
9.012	-0.073
9.014	-0.071
9.016	-0.071
9.018	-0.071
9.020	-0.071
9.022	-0.071
9.024	-0.071
9.026	-0.072
9.028	-0.073
9.030	-0.073
9.032	-0.073
9.034	-0.074
9.036	-0.075
9.038	-0.077
9.040	-0.080
9.042	-0.082
9.044	-0.080
9.046	-0.078
9.048	-0.077
9.050	-0.076
9.052	-0.075
9.054	-0.075
9.056	-0.074
9.058	-0.073
9.060	-0.073
9.062	-0.075
9.064	-0.078
9.066	-0.077
9.068	-0.075
9.070	-0.075
9.072	-0.077
9.074	-0.079
9.076	-0.077
9.078	-0.074
9.080	-0.072
9.082	-0.074
9.084	-0.076
9.086	-0.076
9.088	-0.076
9.090	-0.077
9.092	-0.078
9.094	-0.078
9.096	-0.078
9.098	-0.077
9.100	-0.077
9.102	-0.076
9.104	-0.075
9.106	-0.074
9.108	-0.072
9.110	-0.070
9.112	-0.067
9.114	-0.064
9.116	-0.063
9.118	-0.062
9.120	-0.063
9.122	-0.062
9.124	-0.062
9.126	-0.063
9.128	-0.064
9.130	-0.063
9.132	-0.063
9.134	-0.062
9.136	-0.060
9.138	-0.059
9.140	-0.061
9.142	-0.062
9.144	-0.064
9.146	-0.065
9.148	-0.065
9.150	-0.065
9.152	-0.067
9.154	-0.065
9.156	-0.064
9.158	-0.064
9.160	-0.062
9.162	-0.061
9.164	-0.061
9.166	-0.059
9.168	-0.057
9.170	-0.054
9.172	-0.052
9.174	-0.050
9.176	-0.052
9.178	-0.054
9.180	-0.054
9.182	-0.055
9.184	-0.055
9.186	-0.057
9.188	-0.061
9.190	-0.062
9.192	-0.061
9.194	-0.059
9.196	-0.058
9.198	-0.059
9.200	-0.060
9.202	-0.061
9.204	-0.063
9.206	-0.064
9.208	-0.066
9.210	-0.069
9.212	-0.070
9.214	-0.069
9.216	-0.067
9.218	-0.064
9.220	-0.062
9.222	-0.063
9.224	-0.066
9.226	-0.069
9.228	-0.071
9.230	-0.070
9.232	-0.071
9.234	-0.072
9.236	-0.069
9.238	-0.065
9.240	-0.063
9.242	-0.063
9.244	-0.062
9.246	-0.060
9.248	-0.058
9.250	-0.056
9.252	-0.053
9.254	-0.051
9.256	-0.054
9.258	-0.057
9.260	-0.057
9.262	-0.056
9.264	-0.057
9.266	-0.055
9.268	-0.053
9.270	-0.052
9.272	-0.051
9.274	-0.052
9.276	-0.053
9.278	-0.051
9.280	-0.051
9.282	-0.053
9.284	-0.053
9.286	-0.051
9.288	-0.050
9.290	-0.049
9.292	-0.047
9.294	-0.045
9.296	-0.045
9.298	-0.046
9.300	-0.047
9.302	-0.049
9.304	-0.050
9.306	-0.050
9.308	-0.049
9.310	-0.048
9.312	-0.047
9.314	-0.046
9.316	-0.044
9.318	-0.043
9.320	-0.044
9.322	-0.045
9.324	-0.046
9.326	-0.047
9.328	-0.048
9.330	-0.047
9.332	-0.047
9.334	-0.045
9.336	-0.043
9.338	-0.041
9.340	-0.041
9.342	-0.043
9.344	-0.046
9.346	-0.049
9.348	-0.050
9.350	-0.050
9.352	-0.049
9.354	-0.046
9.356	-0.044
9.358	-0.041
9.360	-0.040
9.362	-0.042
9.364	-0.042
9.366	-0.041
9.368	-0.043
9.370	-0.045
9.372	-0.045
9.374	-0.044
9.376	-0.044
9.378	-0.043
9.380	-0.043
9.382	-0.045
9.384	-0.048
9.386	-0.050
9.388	-0.051
9.390	-0.053
9.392	-0.055
9.394	-0.056
9.396	-0.054
9.398	-0.047
9.400	-0.039
9.402	-0.033
9.404	-0.032
9.406	-0.029
9.408	-0.022
9.410	-0.017
9.412	-0.015
9.414	-0.012
9.416	-0.011
9.418	-0.015
9.420	-0.021
9.422	-0.025
9.424	-0.027
9.426	-0.025
9.428	-0.020
9.430	-0.015
9.432	-0.010
9.434	-0.001
9.436	0.013
9.438	0.030
9.440	0.046
9.442	0.050
9.444	0.045
9.446	0.040
9.448	0.033
9.450	0.025
9.452	0.017
9.454	0.015
9.456	0.018
9.458	0.022
9.460	0.024
9.462	0.026
9.464	0.024
9.466	0.018
9.468	0.008
9.470	-0.005
9.472	-0.014
9.474	-0.019
9.476	-0.022
9.478	-0.027
9.480	-0.030
9.482	-0.029
9.484	-0.027
9.486	-0.029
9.488	-0.033
9.490	-0.036
9.492	-0.037
9.494	-0.036
9.496	-0.035
9.498	-0.034
9.500	-0.032
9.502	-0.029
9.504	-0.029
9.506	-0.032
9.508	-0.033
9.510	-0.035
9.512	-0.038
9.514	-0.041
9.516	-0.043
9.518	-0.042
9.520	-0.039
9.522	-0.035
9.524	-0.032
9.526	-0.031
9.528	-0.030
9.530	-0.029
9.532	-0.029
9.534	-0.028
9.536	-0.026
9.538	-0.024
9.540	-0.023
9.542	-0.024
9.544	-0.026
9.546	-0.027
9.548	-0.028
9.550	-0.027
9.552	-0.023
9.554	-0.019
9.556	-0.017
9.558	-0.016
9.560	-0.014
9.562	-0.014
9.564	-0.018
9.566	-0.029
9.568	-0.056
9.570	-0.118
9.572	-0.218
9.574	-0.336
9.576	-0.425
9.578	-0.453
9.580	-0.440
9.582	-0.413
9.584	-0.359
9.586	-0.265
9.588	-0.163
9.590	-0.061
9.592	0.081
9.594	0.329
9.596	0.723
9.598	1.227
9.600	1.742
9.602	2.181
9.604	2.542
9.606	2.851
9.608	3.092
9.610	3.211
9.612	3.178
9.614	2.965
9.616	2.568
9.618	2.052
9.620	1.494
9.622	0.966
9.624	0.538
9.626	0.242
9.628	0.043
9.630	-0.116
9.632	-0.259
9.634	-0.385
9.636	-0.477
9.638	-0.507
9.640	-0.468
9.642	-0.398
9.644	-0.330
9.646	-0.278
9.648	-0.245
9.650	-0.217
9.652	-0.167
9.654	-0.093
9.656	-0.038
9.658	-0.025
9.660	-0.034
9.662	-0.045
9.664	-0.055
9.666	-0.061
9.668	-0.064
9.670	-0.064
9.672	-0.062
9.674	-0.056
9.676	-0.048
9.678	-0.045
9.680	-0.044
9.682	-0.041
9.684	-0.039
9.686	-0.040
9.688	-0.044
9.690	-0.048
9.692	-0.048
9.694	-0.048
9.696	-0.049
9.698	-0.050
9.700	-0.049
9.702	-0.046
9.704	-0.044
9.706	-0.043
9.708	-0.044
9.710	-0.045
9.712	-0.043
9.714	-0.036
9.716	-0.030
9.718	-0.027
9.720	-0.025
9.722	-0.023
9.724	-0.018
9.726	-0.013
9.728	-0.009
9.730	-0.005
9.732	-0.002
9.734	-0.003
9.736	-0.003
9.738	0.001
9.740	0.006
9.742	0.011
9.744	0.014
9.746	0.017
9.748	0.020
9.750	0.021
9.752	0.023
9.754	0.028
9.756	0.036
9.758	0.041
9.760	0.045
9.762	0.050
9.764	0.057
9.766	0.064
9.768	0.070
9.770	0.073
9.772	0.072
9.774	0.071
9.776	0.071
9.778	0.075
9.780	0.080
9.782	0.086
9.784	0.091
9.786	0.096
9.788	0.102
9.790	0.110
9.792	0.116
9.794	0.122
9.796	0.130
9.798	0.135
9.800	0.139
9.802	0.143
9.804	0.147
9.806	0.151
9.808	0.156
9.810	0.162
9.812	0.169
9.814	0.177
9.816	0.183
9.818	0.190
9.820	0.200
9.822	0.211
9.824	0.221
9.826	0.229
9.828	0.234
9.830	0.239
9.832	0.247
9.834	0.258
9.836	0.269
9.838	0.279
9.840	0.291
9.842	0.303
9.844	0.313
9.846	0.321
9.848	0.330
9.850	0.343
9.852	0.356
9.854	0.370
9.856	0.386
9.858	0.403
9.860	0.417
9.862	0.428
9.864	0.440
9.866	0.454
9.868	0.466
9.870	0.476
9.872	0.484
9.874	0.493
9.876	0.503
9.878	0.512
9.880	0.519
9.882	0.526
9.884	0.533
9.886	0.538
9.888	0.540
9.890	0.541
9.892	0.545
9.894	0.547
9.896	0.547
9.898	0.545
9.900	0.544
9.902	0.541
9.904	0.536
9.906	0.528
9.908	0.517
9.910	0.505
9.912	0.491
9.914	0.476
9.916	0.461
9.918	0.445
9.920	0.425
9.922	0.403
9.924	0.380
9.926	0.356
9.928	0.334
9.930	0.313
9.932	0.292
9.934	0.271
9.936	0.248
9.938	0.226
9.940	0.205
9.942	0.186
9.944	0.163
9.946	0.138
9.948	0.113
9.950	0.095
9.952	0.084
9.954	0.069
9.956	0.050
9.958	0.032
9.960	0.018
9.962	0.005
9.964	-0.008
9.966	-0.021
9.968	-0.033
9.970	-0.043
9.972	-0.048
9.974	-0.054
9.976	-0.061
9.978	-0.070
9.980	-0.077
9.982	-0.085
9.984	-0.092
9.986	-0.098
9.988	-0.102
9.990	-0.105
9.992	-0.107
9.994	-0.109
9.996	-0.110
9.998	-0.109
10.000	-0.108
10.002	-0.110
10.004	-0.113
10.006	-0.117
10.008	-0.122
10.010	-0.127
10.012	-0.131
10.014	-0.132
10.016	-0.129
10.018	-0.128
10.020	-0.130
10.022	-0.129
10.024	-0.123
10.026	-0.120
10.028	-0.119
10.030	-0.115
10.032	-0.111
10.034	-0.109
10.036	-0.112
10.038	-0.115
10.040	-0.115
10.042	-0.112
10.044	-0.110
10.046	-0.107
10.048	-0.104
10.050	-0.104
10.052	-0.107
10.054	-0.112
10.056	-0.115
10.058	-0.112
10.060	-0.106
10.062	-0.103
10.064	-0.102
10.066	-0.103
10.068	-0.104
10.070	-0.106
10.072	-0.109
10.074	-0.109
10.076	-0.107
10.078	-0.106
10.080	-0.106
10.082	-0.109
10.084	-0.108
10.086	-0.105
10.088	-0.104
10.090	-0.103
10.092	-0.100
10.094	-0.100
10.096	-0.100
10.098	-0.098
10.100	-0.097
10.102	-0.099
10.104	-0.104
10.106	-0.108
10.108	-0.109
10.110	-0.107
10.112	-0.105
10.114	-0.106
10.116	-0.106
10.118	-0.104
10.120	-0.104
10.122	-0.107
10.124	-0.112
10.126	-0.114
10.128	-0.113
10.130	-0.112
10.132	-0.113
10.134	-0.113
10.136	-0.109
10.138	-0.108
10.140	-0.110
10.142	-0.112
10.144	-0.116
10.146	-0.119
10.148	-0.121
10.150	-0.122
10.152	-0.123
10.154	-0.124
10.156	-0.124
10.158	-0.128
10.160	-0.132
10.162	-0.133
10.164	-0.134
10.166	-0.134
10.168	-0.131
10.170	-0.130
10.172	-0.131
10.174	-0.133
10.176	-0.133
10.178	-0.132
10.180	-0.133
10.182	-0.135
10.184	-0.141
10.186	-0.145
10.188	-0.147
10.190	-0.148
10.192	-0.149
10.194	-0.151
10.196	-0.153
10.198	-0.155
10.200	-0.156
10.202	-0.156
10.204	-0.157
10.206	-0.158
10.208	-0.161
10.210	-0.163
10.212	-0.165
10.214	-0.169
10.216	-0.173
10.218	-0.175
10.220	-0.175
10.222	-0.173
10.224	-0.174
10.226	-0.174
10.228	-0.173
10.230	-0.169
10.232	-0.165
10.234	-0.166
10.236	-0.172
10.238	-0.179
10.240	-0.181
10.242	-0.180
10.244	-0.178
10.246	-0.181
10.248	-0.189
10.250	-0.195
10.252	-0.196
10.254	-0.193
10.256	-0.191
10.258	-0.189
10.260	-0.187
10.262	-0.187
10.264	-0.187
10.266	-0.185
10.268	-0.187
10.270	-0.193
10.272	-0.199
10.274	-0.201
10.276	-0.199
10.278	-0.194
10.280	-0.193
10.282	-0.196
10.284	-0.201
10.286	-0.203
10.288	-0.201
10.290	-0.199
10.292	-0.199
10.294	-0.201
10.296	-0.204
10.298	-0.208
10.300	-0.212
10.302	-0.215
10.304	-0.216
10.306	-0.216
10.308	-0.215
10.310	-0.211
10.312	-0.208
10.314	-0.210
10.316	-0.215
10.318	-0.219
10.320	-0.221
10.322	-0.223
10.324	-0.225
10.326	-0.225
10.328	-0.222
10.330	-0.216
10.332	-0.211
10.334	-0.211
10.336	-0.212
10.338	-0.210
10.340	-0.209
10.342	-0.213
10.344	-0.219
10.346	-0.224
10.348	-0.227
10.350	-0.227
10.352	-0.226
10.354	-0.224
10.356	-0.221
10.358	-0.218
10.360	-0.219
10.362	-0.222
10.364	-0.226
10.366	-0.229
10.368	-0.230
10.370	-0.229
10.372	-0.226
10.374	-0.224
10.376	-0.224
10.378	-0.227
10.380	-0.229
10.382	-0.232
10.384	-0.234
10.386	-0.235
10.388	-0.235
10.390	-0.235
10.392	-0.234
10.394	-0.230
10.396	-0.227
10.398	-0.228
10.400	-0.231
10.402	-0.235
10.404	-0.238
10.406	-0.242
10.408	-0.244
10.410	-0.245
10.412	-0.243
10.414	-0.241
10.416	-0.238
10.418	-0.237
10.420	-0.239
10.422	-0.243
10.424	-0.247
10.426	-0.248
10.428	-0.246
10.430	-0.245
10.432	-0.245
10.434	-0.243
10.436	-0.242
10.438	-0.243
10.440	-0.245
10.442	-0.245
10.444	-0.241
10.446	-0.239
10.448	-0.241
10.450	-0.242
10.452	-0.240
10.454	-0.241
10.456	-0.243
10.458	-0.243
10.460	-0.241
10.462	-0.240
10.464	-0.240
10.466	-0.240
10.468	-0.240
10.470	-0.241
10.472	-0.241
10.474	-0.244
10.476	-0.248
10.478	-0.252
10.480	-0.253
10.482	-0.252
10.484	-0.252
10.486	-0.250
10.488	-0.247
10.490	-0.244
10.492	-0.241
10.494	-0.240
10.496	-0.241
10.498	-0.244
10.500	-0.244
10.502	-0.243
10.504	-0.243
10.506	-0.242
10.508	-0.240
10.510	-0.237
10.512	-0.234
10.514	-0.233
10.516	-0.232
10.518	-0.231
10.520	-0.230
10.522	-0.228
10.524	-0.225
10.526	-0.223
10.528	-0.222
10.530	-0.223
10.532	-0.226
10.534	-0.227
10.536	-0.224
10.538	-0.223
10.540	-0.227
10.542	-0.230
10.544	-0.228
10.546	-0.223
10.548	-0.221
10.550	-0.222
10.552	-0.219
10.554	-0.214
10.556	-0.211
10.558	-0.214
10.560	-0.219
10.562	-0.224
10.564	-0.228
10.566	-0.229
10.568	-0.229
10.570	-0.229
10.572	-0.228
10.574	-0.228
10.576	-0.227
10.578	-0.228
10.580	-0.230
10.582	-0.231
10.584	-0.230
10.586	-0.230
10.588	-0.228
10.590	-0.225
10.592	-0.221
10.594	-0.220
10.596	-0.223
10.598	-0.228
10.600	-0.234
10.602	-0.239
10.604	-0.244
10.606	-0.246
10.608	-0.245
10.610	-0.244
10.612	-0.245
10.614	-0.247
10.616	-0.250
10.618	-0.254
10.620	-0.256
10.622	-0.252
10.624	-0.250
10.626	-0.248
10.628	-0.246
10.630	-0.246
10.632	-0.246
10.634	-0.246
10.636	-0.245
10.638	-0.244
10.640	-0.242
10.642	-0.242
10.644	-0.244
10.646	-0.246
10.648	-0.251
10.650	-0.256
10.652	-0.260
10.654	-0.261
10.656	-0.263
10.658	-0.266
10.660	-0.265
10.662	-0.257
10.664	-0.246
10.666	-0.240
10.668	-0.240
10.670	-0.242
10.672	-0.237
10.674	-0.228
10.676	-0.223
10.678	-0.222
10.680	-0.223
10.682	-0.225
10.684	-0.226
10.686	-0.226
10.688	-0.224
10.690	-0.221
10.692	-0.218
10.694	-0.215
10.696	-0.213
10.698	-0.206
10.700	-0.193
10.702	-0.176
10.704	-0.159
10.706	-0.153
10.708	-0.158
10.710	-0.164
10.712	-0.172
10.714	-0.182
10.716	-0.189
10.718	-0.189
10.720	-0.188
10.722	-0.187
10.724	-0.185
10.726	-0.188
10.728	-0.192
10.730	-0.199
10.732	-0.211
10.734	-0.222
10.736	-0.230
10.738	-0.234
10.740	-0.238
10.742	-0.244
10.744	-0.247
10.746	-0.245
10.748	-0.245
10.750	-0.248
10.752	-0.251
10.754	-0.249
10.756	-0.244
10.758	-0.243
10.760	-0.242
10.762	-0.240
10.764	-0.239
10.766	-0.240
10.768	-0.240
10.770	-0.240
10.772	-0.239
10.774	-0.240
10.776	-0.241
10.778	-0.243
10.780	-0.247
10.782	-0.250
10.784	-0.251
10.786	-0.252
10.788	-0.252
10.790	-0.253
10.792	-0.256
10.794	-0.260
10.796	-0.263
10.798	-0.262
10.800	-0.257
10.802	-0.254
10.804	-0.254
10.806	-0.254
10.808	-0.255
10.810	-0.256
10.812	-0.256
10.814	-0.253
10.816	-0.249
10.818	-0.249
10.820	-0.248
10.822	-0.245
10.824	-0.242
10.826	-0.241
10.828	-0.242
10.830	-0.247
10.832	-0.261
10.834	-0.292
10.836	-0.356
10.838	-0.454
10.840	-0.567
10.842	-0.652
10.844	-0.686
10.846	-0.685
10.848	-0.658
10.850	-0.583
10.852	-0.473
10.854	-0.372
10.856	-0.274
10.858	-0.139
10.860	0.087
10.862	0.457
10.864	0.925
10.866	1.387
10.868	1.788
10.870	2.132
10.872	2.421
10.874	2.621
10.876	2.697
10.878	2.651
10.880	2.477
10.882	2.157
10.884	1.725
10.886	1.229
10.888	0.723
10.890	0.308
10.892	0.036
10.894	-0.148
10.896	-0.298
10.898	-0.430
10.900	-0.540
10.902	-0.621
10.904	-0.670
10.906	-0.672
10.908	-0.627
10.910	-0.566
10.912	-0.509
10.914	-0.468
10.916	-0.440
10.918	-0.410
10.920	-0.362
10.922	-0.298
10.924	-0.252
10.926	-0.239
10.928	-0.244
10.930	-0.250
10.932	-0.255
10.934	-0.258
10.936	-0.256
10.938	-0.252
10.940	-0.247
10.942	-0.242
10.944	-0.238
10.946	-0.236
10.948	-0.233
10.950	-0.227
10.952	-0.221
10.954	-0.217
10.956	-0.217
10.958	-0.216
10.960	-0.215
10.962	-0.213
10.964	-0.212
10.966	-0.209
10.968	-0.206
10.970	-0.203
10.972	-0.198
10.974	-0.194
10.976	-0.192
10.978	-0.190
10.980	-0.188
10.982	-0.187
10.984	-0.183
10.986	-0.179
10.988	-0.174
10.990	-0.171
10.992	-0.170
10.994	-0.168
10.996	-0.166
10.998	-0.166
11.000	-0.165
11.002	-0.159
11.004	-0.153
11.006	-0.149
11.008	-0.146
11.010	-0.142
11.012	-0.138
11.014	-0.134
11.016	-0.134
11.018	-0.134
11.020	-0.131
11.022	-0.129
11.024	-0.127
11.026	-0.124
11.028	-0.120
11.030	-0.118
11.032	-0.116
11.034	-0.115
11.036	-0.112
11.038	-0.107
11.040	-0.101
11.042	-0.097
11.044	-0.093
11.046	-0.088
11.048	-0.082
11.050	-0.078
11.052	-0.073
11.054	-0.068
11.056	-0.061
11.058	-0.053
11.060	-0.048
11.062	-0.046
11.064	-0.044
11.066	-0.039
11.068	-0.033
11.070	-0.028
11.072	-0.022
11.074	-0.016
11.076	-0.012
11.078	-0.006
11.080	0.004
11.082	0.015
11.084	0.025
11.086	0.033
11.088	0.043
11.090	0.053
11.092	0.063
11.094	0.076
11.096	0.090
11.098	0.102
11.100	0.112
11.102	0.122
11.104	0.133
11.106	0.144
11.108	0.156
11.110	0.167
11.112	0.177
11.114	0.189
11.116	0.204
11.118	0.219
11.120	0.231
11.122	0.244
11.124	0.259
11.126	0.276
11.128	0.288
11.130	0.297
11.132	0.306
11.134	0.316
11.136	0.326
11.138	0.333
11.140	0.339
11.142	0.346
11.144	0.353
11.146	0.359
11.148	0.367
11.150	0.374
11.152	0.378
11.154	0.382
11.156	0.388
11.158	0.392
11.160	0.394
11.162	0.395
11.164	0.396
11.166	0.394
11.168	0.389
11.170	0.383
11.172	0.376
11.174	0.369
11.176	0.360
11.178	0.348
11.180	0.335
11.182	0.320
11.184	0.300
11.186	0.280
11.188	0.264
11.190	0.246
11.192	0.223
11.194	0.201
11.196	0.181
11.198	0.162
11.200	0.143
11.202	0.124
11.204	0.104
11.206	0.085
11.208	0.066
11.210	0.046
11.212	0.027
11.214	0.011
11.216	-0.003
11.218	-0.018
11.220	-0.034
11.222	-0.052
11.224	-0.069
11.226	-0.084
11.228	-0.096
11.230	-0.107
11.232	-0.116
11.234	-0.123
11.236	-0.130
11.238	-0.137
11.240	-0.144
11.242	-0.149
11.244	-0.157
11.246	-0.165
11.248	-0.170
11.250	-0.175
11.252	-0.180
11.254	-0.186
11.256	-0.192
11.258	-0.196
11.260	-0.196
11.262	-0.195
11.264	-0.193
11.266	-0.194
11.268	-0.197
11.270	-0.200
11.272	-0.202
11.274	-0.205
11.276	-0.206
11.278	-0.206
11.280	-0.207
11.282	-0.208
11.284	-0.210
11.286	-0.210
11.288	-0.210
11.290	-0.210
11.292	-0.209
11.294	-0.207
11.296	-0.205
11.298	-0.203
11.300	-0.201
11.302	-0.199
11.304	-0.197
11.306	-0.195
11.308	-0.193
11.310	-0.190
11.312	-0.188
11.314	-0.184
11.316	-0.179
11.318	-0.173
11.320	-0.170
11.322	-0.168
11.324	-0.166
11.326	-0.164
11.328	-0.161
11.330	-0.159
11.332	-0.160
11.334	-0.160
11.336	-0.156
11.338	-0.152
11.340	-0.150
11.342	-0.152
11.344	-0.153
11.346	-0.151
11.348	-0.146
11.350	-0.143
11.352	-0.145
11.354	-0.146
11.356	-0.145
11.358	-0.142
11.360	-0.141
11.362	-0.144
11.364	-0.149
11.366	-0.153
11.368	-0.151
11.370	-0.148
11.372	-0.146
11.374	-0.145
11.376	-0.144
11.378	-0.143
11.380	-0.143
11.382	-0.143
11.384	-0.142
11.386	-0.142
11.388	-0.141
11.390	-0.141
11.392	-0.142
11.394	-0.141
11.396	-0.140
11.398	-0.140
11.400	-0.140
11.402	-0.142
11.404	-0.143
11.406	-0.143
11.408	-0.145
11.410	-0.145
11.412	-0.144
11.414	-0.143
11.416	-0.142
11.418	-0.142
11.420	-0.145
11.422	-0.150
11.424	-0.151
11.426	-0.149
11.428	-0.147
11.430	-0.147
11.432	-0.148
11.434	-0.149
11.436	-0.150
11.438	-0.151
11.440	-0.152
11.442	-0.152
11.444	-0.152
11.446	-0.151
11.448	-0.151
11.450	-0.151
11.452	-0.152
11.454	-0.152
11.456	-0.151
11.458	-0.152
11.460	-0.153
11.462	-0.152
11.464	-0.150
11.466	-0.149
11.468	-0.149
11.470	-0.150
11.472	-0.153
11.474	-0.157
11.476	-0.159
11.478	-0.160
11.480	-0.160
11.482	-0.161
11.484	-0.161
11.486	-0.161
11.488	-0.164
11.490	-0.165
11.492	-0.161
11.494	-0.158
11.496	-0.158
11.498	-0.159
11.500	-0.157
11.502	-0.154
11.504	-0.153
11.506	-0.154
11.508	-0.155
11.510	-0.153
11.512	-0.152
11.514	-0.152
11.516	-0.153
11.518	-0.152
11.520	-0.151
11.522	-0.150
11.524	-0.149
11.526	-0.146
11.528	-0.146
11.530	-0.147
11.532	-0.148
11.534	-0.146
11.536	-0.145
11.538	-0.145
11.540	-0.146
11.542	-0.147
11.544	-0.148
11.546	-0.147
11.548	-0.147
11.550	-0.146
11.552	-0.147
11.554	-0.146
11.556	-0.144
11.558	-0.142
11.560	-0.142
11.562	-0.143
11.564	-0.144
11.566	-0.146
11.568	-0.148
11.570	-0.149
11.572	-0.147
11.574	-0.145
11.576	-0.144
11.578	-0.144
11.580	-0.142
11.582	-0.141
11.584	-0.141
11.586	-0.141
11.588	-0.139
11.590	-0.138
11.592	-0.136
11.594	-0.133
11.596	-0.132
11.598	-0.136
11.600	-0.139
11.602	-0.140
11.604	-0.140
11.606	-0.141
11.608	-0.144
11.610	-0.147
11.612	-0.147
11.614	-0.146
11.616	-0.147
11.618	-0.148
11.620	-0.146
11.622	-0.145
11.624	-0.146
11.626	-0.147
11.628	-0.148
11.630	-0.147
11.632	-0.147
11.634	-0.147
11.636	-0.146
11.638	-0.144
11.640	-0.143
11.642	-0.142
11.644	-0.141
11.646	-0.142
11.648	-0.143
11.650	-0.142
11.652	-0.141
11.654	-0.142
11.656	-0.141
11.658	-0.140
11.660	-0.138
11.662	-0.137
11.664	-0.136
11.666	-0.137
11.668	-0.139
11.670	-0.140
11.672	-0.142
11.674	-0.141
11.676	-0.137
11.678	-0.135
11.680	-0.136
11.682	-0.137
11.684	-0.135
11.686	-0.133
11.688	-0.133
11.690	-0.135
11.692	-0.136
11.694	-0.136
11.696	-0.135
11.698	-0.137
11.700	-0.138
11.702	-0.139
11.704	-0.139
11.706	-0.137
11.708	-0.134
11.710	-0.133
11.712	-0.133
11.714	-0.133
11.716	-0.132
11.718	-0.129
11.720	-0.127
11.722	-0.127
11.724	-0.127
11.726	-0.125
11.728	-0.123
11.730	-0.121
11.732	-0.121
11.734	-0.121
11.736	-0.121
11.738	-0.120
11.740	-0.118
11.742	-0.114
11.744	-0.110
11.746	-0.107
11.748	-0.107
11.750	-0.108
11.752	-0.108
11.754	-0.108
11.756	-0.106
11.758	-0.104
11.760	-0.105
11.762	-0.107
11.764	-0.107
11.766	-0.106
11.768	-0.108
11.770	-0.107
11.772	-0.105
11.774	-0.101
11.776	-0.097
11.778	-0.095
11.780	-0.094
11.782	-0.094
11.784	-0.093
11.786	-0.092
11.788	-0.092
11.790	-0.094
11.792	-0.093
11.794	-0.090
11.796	-0.087
11.798	-0.084
11.800	-0.084
11.802	-0.083
11.804	-0.080
11.806	-0.078
11.808	-0.078
11.810	-0.080
11.812	-0.083
11.814	-0.085
11.816	-0.085
11.818	-0.083
11.820	-0.080
11.822	-0.079
11.824	-0.078
11.826	-0.077
11.828	-0.076
11.830	-0.078
11.832	-0.081
11.834	-0.082
11.836	-0.082
11.838	-0.079
11.840	-0.078
11.842	-0.077
11.844	-0.077
11.846	-0.076
11.848	-0.077
11.850	-0.078
11.852	-0.079
11.854	-0.078
11.856	-0.077
11.858	-0.076
11.860	-0.077
11.862	-0.077
11.864	-0.075
11.866	-0.073
11.868	-0.072
11.870	-0.072
11.872	-0.073
11.874	-0.072
11.876	-0.072
11.878	-0.072
11.880	-0.070
11.882	-0.069
11.884	-0.070
11.886	-0.074
11.888	-0.077
11.890	-0.079
11.892	-0.080
11.894	-0.080
11.896	-0.079
11.898	-0.077
11.900	-0.075
11.902	-0.075
11.904	-0.074
11.906	-0.072
11.908	-0.072
11.910	-0.072
11.912	-0.074
11.914	-0.075
11.916	-0.074
11.918	-0.074
11.920	-0.073
11.922	-0.073
11.924	-0.076
11.926	-0.078
11.928	-0.079
11.930	-0.077
11.932	-0.074
11.934	-0.072
11.936	-0.073
11.938	-0.076
11.940	-0.080
11.942	-0.084
11.944	-0.084
11.946	-0.084
11.948	-0.086
11.950	-0.087
11.952	-0.082
11.954	-0.075
11.956	-0.068
11.958	-0.065
11.960	-0.063
11.962	-0.061
11.964	-0.057
11.966	-0.054
11.968	-0.053
11.970	-0.050
11.972	-0.050
11.974	-0.054
11.976	-0.060
11.978	-0.062
11.980	-0.058
11.982	-0.053
11.984	-0.051
11.986	-0.048
11.988	-0.041
11.990	-0.028
11.992	-0.014
11.994	-0.001
11.996	0.006
11.998	0.005
12.000	0.001
12.002	-0.006
12.004	-0.016
12.006	-0.023
12.008	-0.025
12.010	-0.022
12.012	-0.016
12.014	-0.011
12.016	-0.008
12.018	-0.006
12.020	-0.010
12.022	-0.019
12.024	-0.031
12.026	-0.042
12.028	-0.049
12.030	-0.055
12.032	-0.063
12.034	-0.068
12.036	-0.064
12.038	-0.060
12.040	-0.061
12.042	-0.066
12.044	-0.071
12.046	-0.073
12.048	-0.074
12.050	-0.075
12.052	-0.076
12.054	-0.077
12.056	-0.077
12.058	-0.077
12.060	-0.076
12.062	-0.074
12.064	-0.073
12.066	-0.074
12.068	-0.076
12.070	-0.077
12.072	-0.076
12.074	-0.076
12.076	-0.076
12.078	-0.077
12.080	-0.077
12.082	-0.074
12.084	-0.073
12.086	-0.074
12.088	-0.074
12.090	-0.072
12.092	-0.071
12.094	-0.070
12.096	-0.068
12.098	-0.066
12.100	-0.064
12.102	-0.063
12.104	-0.063
12.106	-0.065
12.108	-0.066
12.110	-0.067
12.112	-0.066
12.114	-0.063
12.116	-0.062
12.118	-0.065
12.120	-0.071
12.122	-0.083
12.124	-0.114
12.126	-0.182
12.128	-0.289
12.130	-0.409
12.132	-0.495
12.134	-0.520
12.136	-0.511
12.138	-0.489
12.140	-0.431
12.142	-0.333
12.144	-0.232
12.146	-0.129
12.148	0.017
12.150	0.273
12.152	0.680
12.154	1.190
12.156	1.697
12.158	2.128
12.160	2.486
12.162	2.792
12.164	3.021
12.166	3.125
12.168	3.078
12.170	2.848
12.172	2.435
12.174	1.916
12.176	1.372
12.178	0.856
12.180	0.440
12.182	0.155
12.184	-0.037
12.186	-0.189
12.188	-0.326
12.190	-0.445
12.192	-0.529
12.194	-0.553
12.196	-0.515
12.198	-0.449
12.200	-0.381
12.202	-0.327
12.204	-0.291
12.206	-0.263
12.208	-0.219
12.210	-0.147
12.212	-0.088
12.214	-0.072
12.216	-0.078
12.218	-0.086
12.220	-0.091
12.222	-0.094
12.224	-0.096
12.226	-0.095
12.228	-0.093
12.230	-0.090
12.232	-0.086
12.234	-0.084
12.236	-0.082
12.238	-0.079
12.240	-0.075
12.242	-0.071
12.244	-0.068
12.246	-0.066
12.248	-0.067
12.250	-0.067
12.252	-0.066
12.254	-0.064
12.256	-0.060
12.258	-0.058
12.260	-0.057
12.262	-0.052
12.264	-0.049
12.266	-0.047
12.268	-0.045
12.270	-0.043
12.272	-0.040
12.274	-0.037
12.276	-0.033
12.278	-0.028
12.280	-0.025
12.282	-0.022
12.284	-0.020
12.286	-0.017
12.288	-0.015
12.290	-0.012
12.292	-0.008
12.294	-0.003
12.296	0.002
12.298	0.007
12.300	0.011
12.302	0.012
12.304	0.014
12.306	0.016
12.308	0.018
12.310	0.021
12.312	0.024
12.314	0.027
12.316	0.030
12.318	0.033
12.320	0.035
12.322	0.038
12.324	0.043
12.326	0.046
12.328	0.048
12.330	0.050
12.332	0.052
12.334	0.055
12.336	0.061
12.338	0.068
12.340	0.073
12.342	0.077
12.344	0.079
12.346	0.081
12.348	0.084
12.350	0.086
12.352	0.088
12.354	0.089
12.356	0.091
12.358	0.093
12.360	0.096
12.362	0.102
12.364	0.109
12.366	0.117
12.368	0.125
12.370	0.130
12.372	0.135
12.374	0.141
12.376	0.148
12.378	0.155
12.380	0.163
12.382	0.172
12.384	0.181
12.386	0.188
12.388	0.195
12.390	0.203
12.392	0.214
12.394	0.226
12.396	0.239
12.398	0.252
12.400	0.264
12.402	0.274
12.404	0.287
12.406	0.301
12.408	0.315
12.410	0.326
12.412	0.337
12.414	0.348
12.416	0.360
12.418	0.372
12.420	0.388
12.422	0.402
12.424	0.414
12.426	0.425
12.428	0.436
12.430	0.447
12.432	0.457
12.434	0.467
12.436	0.478
12.438	0.487
12.440	0.494
12.442	0.500
12.444	0.506
12.446	0.511
12.448	0.515
12.450	0.516
12.452	0.519
12.454	0.522
12.456	0.525
12.458	0.523
12.460	0.517
12.462	0.510
12.464	0.501
12.466	0.490
12.468	0.476
12.470	0.460
12.472	0.442
12.474	0.424
12.476	0.405
12.478	0.384
12.480	0.364
12.482	0.344
12.484	0.324
12.486	0.304
12.488	0.283
12.490	0.261
12.492	0.240
12.494	0.218
12.496	0.197
12.498	0.175
12.500	0.155
12.502	0.136
12.504	0.116
12.506	0.097
12.508	0.079
12.510	0.062
12.512	0.045
12.514	0.029
12.516	0.016
12.518	0.005
12.520	-0.006
12.522	-0.019
12.524	-0.033
12.526	-0.042
12.528	-0.050
12.530	-0.058
12.532	-0.066
12.534	-0.075
12.536	-0.083
12.538	-0.089
12.540	-0.092
12.542	-0.094
12.544	-0.097
12.546	-0.102
12.548	-0.106
12.550	-0.109
12.552	-0.111
12.554	-0.112
12.556	-0.112
12.558	-0.112
12.560	-0.113
12.562	-0.113
12.564	-0.112
12.566	-0.114
12.568	-0.119
12.570	-0.122
12.572	-0.123
12.574	-0.123
12.576	-0.122
12.578	-0.120
12.580	-0.119
12.582	-0.120
12.584	-0.121
12.586	-0.120
12.588	-0.118
12.590	-0.117
12.592	-0.117
12.594	-0.116
12.596	-0.111
12.598	-0.107
12.600	-0.107
12.602	-0.109
12.604	-0.108
12.606	-0.105
12.608	-0.103
12.610	-0.103
12.612	-0.104
12.614	-0.102
12.616	-0.100
12.618	-0.097
12.620	-0.096
12.622	-0.096
12.624	-0.096
12.626	-0.096
12.628	-0.096
12.630	-0.096
12.632	-0.094
12.634	-0.093
12.636	-0.092
12.638	-0.090
12.640	-0.090
12.642	-0.088
12.644	-0.083
12.646	-0.080
12.648	-0.081
12.650	-0.082
12.652	-0.081
12.654	-0.083
12.656	-0.084
12.658	-0.085
12.660	-0.086
12.662	-0.087
12.664	-0.086
12.666	-0.081
12.668	-0.077
12.670	-0.077
12.672	-0.083
12.674	-0.088
12.676	-0.087
12.678	-0.085
12.680	-0.084
12.682	-0.085
12.684	-0.086
12.686	-0.087
12.688	-0.090
12.690	-0.092
12.692	-0.092
12.694	-0.091
12.696	-0.091
12.698	-0.091
12.700	-0.092
12.702	-0.093
12.704	-0.095
12.706	-0.097
12.708	-0.099
12.710	-0.100
12.712	-0.101
12.714	-0.100
12.716	-0.099
12.718	-0.099
12.720	-0.100
12.722	-0.102
12.724	-0.104
12.726	-0.106
12.728	-0.107
12.730	-0.108
12.732	-0.108
12.734	-0.108
12.736	-0.108
12.738	-0.108
12.740	-0.109
12.742	-0.110
12.744	-0.113
12.746	-0.116
12.748	-0.117
12.750	-0.116
12.752	-0.114
12.754	-0.115
12.756	-0.118
12.758	-0.121
12.760	-0.123
12.762	-0.123
12.764	-0.123
12.766	-0.123
12.768	-0.122
12.770	-0.122
12.772	-0.124
12.774	-0.125
12.776	-0.122
12.778	-0.118
12.780	-0.119
12.782	-0.121
12.784	-0.122
12.786	-0.123
12.788	-0.126
12.790	-0.129
12.792	-0.132
12.794	-0.131
12.796	-0.129
12.798	-0.129
12.800	-0.129
12.802	-0.129
12.804	-0.127
12.806	-0.128
12.808	-0.130
12.810	-0.131
12.812	-0.131
12.814	-0.131
12.816	-0.130
12.818	-0.131
12.820	-0.133
12.822	-0.134
12.824	-0.134
12.826	-0.136
12.828	-0.138
12.830	-0.138
12.832	-0.137
12.834	-0.136
12.836	-0.136
12.838	-0.136
12.840	-0.137
12.842	-0.138
12.844	-0.138
12.846	-0.136
12.848	-0.134
12.850	-0.133
12.852	-0.134
12.854	-0.134
12.856	-0.133
12.858	-0.132
12.860	-0.132
12.862	-0.131
12.864	-0.132
12.866	-0.133
12.868	-0.132
12.870	-0.132
12.872	-0.132
12.874	-0.133
12.876	-0.135
12.878	-0.135
12.880	-0.133
12.882	-0.131
12.884	-0.132
12.886	-0.132
12.888	-0.132
12.890	-0.132
12.892	-0.132
12.894	-0.131
12.896	-0.131
12.898	-0.131
12.900	-0.131
12.902	-0.132
12.904	-0.133
12.906	-0.133
12.908	-0.133
12.910	-0.134
12.912	-0.135
12.914	-0.135
12.916	-0.136
12.918	-0.135
12.920	-0.130
12.922	-0.129
12.924	-0.130
12.926	-0.131
12.928	-0.129
12.930	-0.128
12.932	-0.129
12.934	-0.131
12.936	-0.132
12.938	-0.131
12.940	-0.131
12.942	-0.130
12.944	-0.127
12.946	-0.124
12.948	-0.122
12.950	-0.123
12.952	-0.125
12.954	-0.128
12.956	-0.128
12.958	-0.126
12.960	-0.125
12.962	-0.125
12.964	-0.128
12.966	-0.130
12.968	-0.132
12.970	-0.132
12.972	-0.131
12.974	-0.131
12.976	-0.130
12.978	-0.130
12.980	-0.131
12.982	-0.130
12.984	-0.129
12.986	-0.129
12.988	-0.130
12.990	-0.129
12.992	-0.128
12.994	-0.126
12.996	-0.127
12.998	-0.129
13.000	-0.129
13.002	-0.127
13.004	-0.126
13.006	-0.125
13.008	-0.124
13.010	-0.123
13.012	-0.124
13.014	-0.123
13.016	-0.120
13.018	-0.119
13.020	-0.118
13.022	-0.117
13.024	-0.117
13.026	-0.119
13.028	-0.120
13.030	-0.119
13.032	-0.119
13.034	-0.119
13.036	-0.118
13.038	-0.118
13.040	-0.118
13.042	-0.116
13.044	-0.113
13.046	-0.112
13.048	-0.113
13.050	-0.116
13.052	-0.117
13.054	-0.116
13.056	-0.113
13.058	-0.112
13.060	-0.110
13.062	-0.109
13.064	-0.109
13.066	-0.110
13.068	-0.109
13.070	-0.107
13.072	-0.108
13.074	-0.108
13.076	-0.108
13.078	-0.107
13.080	-0.107
13.082	-0.106
13.084	-0.104
13.086	-0.104
13.088	-0.105
13.090	-0.106
13.092	-0.105
13.094	-0.105
13.096	-0.105
13.098	-0.105
13.100	-0.105
13.102	-0.106
13.104	-0.104
13.106	-0.101
13.108	-0.100
13.110	-0.102
13.112	-0.103
13.114	-0.101
13.116	-0.100
13.118	-0.101
13.120	-0.101
13.122	-0.100
13.124	-0.100
13.126	-0.100
13.128	-0.100
13.130	-0.100
13.132	-0.102
13.134	-0.103
13.136	-0.101
13.138	-0.099
13.140	-0.098
13.142	-0.099
13.144	-0.101
13.146	-0.102
13.148	-0.102
13.150	-0.102
13.152	-0.103
13.154	-0.104
13.156	-0.104
13.158	-0.105
13.160	-0.103
13.162	-0.100
13.164	-0.100
13.166	-0.101
13.168	-0.103
13.170	-0.103
13.172	-0.101
13.174	-0.102
13.176	-0.101
13.178	-0.099
13.180	-0.098
13.182	-0.099
13.184	-0.098
13.186	-0.097
13.188	-0.095
13.190	-0.096
13.192	-0.096
13.194	-0.096
13.196	-0.096
13.198	-0.098
13.200	-0.098
13.202	-0.097
13.204	-0.097
13.206	-0.098
13.208	-0.098
13.210	-0.098
13.212	-0.098
13.214	-0.098
13.216	-0.097
13.218	-0.094
13.220	-0.091
13.222	-0.088
13.224	-0.087
13.226	-0.087
13.228	-0.088
13.230	-0.090
13.232	-0.091
13.234	-0.091
13.236	-0.090
13.238	-0.091
13.240	-0.092
13.242	-0.091
13.244	-0.089
13.246	-0.086
13.248	-0.086
13.250	-0.088
13.252	-0.088
13.254	-0.088
13.256	-0.087
13.258	-0.086
13.260	-0.085
13.262	-0.089
13.264	-0.095
13.266	-0.098
13.268	-0.098
13.270	-0.097
13.272	-0.102
13.274	-0.106
13.276	-0.100
13.278	-0.088
13.280	-0.078
13.282	-0.072
13.284	-0.068
13.286	-0.066
13.288	-0.065
13.290	-0.066
13.292	-0.065
13.294	-0.062
13.296	-0.063
13.298	-0.065
13.300	-0.069
13.302	-0.069
13.304	-0.064
13.306	-0.062
13.308	-0.066
13.310	-0.066
13.312	-0.056
13.314	-0.040
13.316	-0.024
13.318	-0.010
13.320	-0.003
13.322	-0.004
13.324	-0.010
13.326	-0.020
13.328	-0.029
13.330	-0.034
13.332	-0.034
13.334	-0.029
13.336	-0.023
13.338	-0.020
13.340	-0.020
13.342	-0.024
13.344	-0.032
13.346	-0.044
13.348	-0.054
13.350	-0.064
13.352	-0.072
13.354	-0.080
13.356	-0.082
13.358	-0.080
13.360	-0.079
13.362	-0.081
13.364	-0.084
13.366	-0.085
13.368	-0.085
13.370	-0.084
13.372	-0.082
13.374	-0.078
13.376	-0.077
13.378	-0.079
13.380	-0.080
13.382	-0.078
13.384	-0.076
13.386	-0.076
13.388	-0.078
13.390	-0.080
13.392	-0.080
13.394	-0.079
13.396	-0.077
13.398	-0.074
13.400	-0.070
13.402	-0.069
13.404	-0.070
13.406	-0.073
13.408	-0.077
13.410	-0.081
13.412	-0.080
13.414	-0.077
13.416	-0.075
13.418	-0.074
13.420	-0.071
13.422	-0.070
13.424	-0.069
13.426	-0.067
13.428	-0.068
13.430	-0.069
13.432	-0.070
13.434	-0.069
13.436	-0.066
13.438	-0.063
13.440	-0.063
13.442	-0.070
13.444	-0.086
13.446	-0.122
13.448	-0.198
13.450	-0.311
13.452	-0.434
13.454	-0.517
13.456	-0.540
13.458	-0.530
13.460	-0.501
13.462	-0.426
13.464	-0.317
13.466	-0.215
13.468	-0.107
13.470	0.057
13.472	0.338
13.474	0.769
13.476	1.287
13.478	1.784
13.480	2.207
13.482	2.566
13.484	2.872
13.486	3.090
13.488	3.169
13.490	3.088
13.492	2.825
13.494	2.390
13.496	1.862
13.498	1.312
13.500	0.799
13.502	0.401
13.504	0.141
13.506	-0.041
13.508	-0.195
13.510	-0.337
13.512	-0.458
13.514	-0.544
13.516	-0.570
13.518	-0.530
13.520	-0.458
13.522	-0.390
13.524	-0.337
13.526	-0.301
13.528	-0.271
13.530	-0.226
13.532	-0.156
13.534	-0.095
13.536	-0.073
13.538	-0.075
13.540	-0.083
13.542	-0.090
13.544	-0.094
13.546	-0.095
13.548	-0.092
13.550	-0.090
13.552	-0.090
13.554	-0.088
13.556	-0.085
13.558	-0.081
13.560	-0.077
13.562	-0.074
13.564	-0.069
13.566	-0.065
13.568	-0.063
13.570	-0.062
13.572	-0.061
13.574	-0.060
13.576	-0.059
13.578	-0.059
13.580	-0.056
13.582	-0.051
13.584	-0.047
13.586	-0.044
13.588	-0.042
13.590	-0.037
13.592	-0.033
13.594	-0.031
13.596	-0.031
13.598	-0.028
13.600	-0.022
13.602	-0.018
13.604	-0.015
13.606	-0.012
13.608	-0.007
13.610	-0.003
13.612	0.002
13.614	0.009
13.616	0.012
13.618	0.010
13.620	0.009
13.622	0.011
13.624	0.014
13.626	0.018
13.628	0.022
13.630	0.023
13.632	0.023
13.634	0.025
13.636	0.028
13.638	0.034
13.640	0.039
13.642	0.043
13.644	0.046
13.646	0.049
13.648	0.052
13.650	0.055
13.652	0.059
13.654	0.062
13.656	0.067
13.658	0.072
13.660	0.074
13.662	0.075
13.664	0.077
13.666	0.079
13.668	0.081
13.670	0.082
13.672	0.083
13.674	0.085
13.676	0.087
13.678	0.088
13.680	0.090
13.682	0.097
13.684	0.106
13.686	0.116
13.688	0.125
13.690	0.132
13.692	0.141
13.694	0.149
13.696	0.159
13.698	0.170
13.700	0.181
13.702	0.191
13.704	0.200
13.706	0.208
13.708	0.214
13.710	0.222
13.712	0.233
13.714	0.244
13.716	0.254
13.718	0.268
13.720	0.286
13.722	0.303
13.724	0.316
13.726	0.329
13.728	0.341
13.730	0.352
13.732	0.363
13.734	0.374
13.736	0.384
13.738	0.394
13.740	0.404
13.742	0.412
13.744	0.419
13.746	0.430
13.748	0.440
13.750	0.449
13.752	0.461
13.754	0.471
13.756	0.481
13.758	0.489
13.760	0.497
13.762	0.505
13.764	0.513
13.766	0.521
13.768	0.527
13.770	0.530
13.772	0.531
13.774	0.531
13.776	0.529
13.778	0.525
13.780	0.521
13.782	0.519
13.784	0.518
13.786	0.516
13.788	0.510
13.790	0.499
13.792	0.487
13.794	0.472
13.796	0.455
13.798	0.436
13.800	0.416
13.802	0.394
13.804	0.370
13.806	0.347
13.808	0.327
13.810	0.306
13.812	0.283
13.814	0.258
13.816	0.234
13.818	0.212
13.820	0.192
13.822	0.175
13.824	0.157
13.826	0.138
13.828	0.118
13.830	0.096
13.832	0.074
13.834	0.056
13.836	0.043
13.838	0.030
13.840	0.019
13.842	0.008
13.844	-0.003
13.846	-0.013
13.848	-0.021
13.850	-0.031
13.852	-0.041
13.854	-0.050
13.856	-0.060
13.858	-0.073
13.860	-0.083
13.862	-0.085
13.864	-0.084
13.866	-0.085
13.868	-0.088
13.870	-0.092
13.872	-0.098
13.874	-0.105
13.876	-0.109
13.878	-0.110
13.880	-0.108
13.882	-0.105
13.884	-0.103
13.886	-0.103
13.888	-0.104
13.890	-0.108
13.892	-0.113
13.894	-0.116
13.896	-0.115
13.898	-0.112
13.900	-0.109
13.902	-0.108
13.904	-0.107
13.906	-0.107
13.908	-0.108
13.910	-0.109
13.912	-0.108
13.914	-0.106
13.916	-0.103
13.918	-0.101
13.920	-0.099
13.922	-0.096
13.924	-0.095
13.926	-0.095
13.928	-0.096
13.930	-0.097
13.932	-0.097
13.934	-0.095
13.936	-0.095
13.938	-0.095
13.940	-0.093
13.942	-0.092
13.944	-0.095
13.946	-0.099
13.948	-0.098
13.950	-0.096
13.952	-0.098
13.954	-0.100
13.956	-0.097
13.958	-0.090
13.960	-0.083
13.962	-0.081
13.964	-0.083
13.966	-0.084
13.968	-0.080
13.970	-0.076
13.972	-0.077
13.974	-0.080
13.976	-0.082
13.978	-0.081
13.980	-0.080
13.982	-0.083
13.984	-0.085
13.986	-0.083
13.988	-0.079
13.990	-0.077
13.992	-0.081
13.994	-0.085
13.996	-0.087
13.998	-0.088
14.000	-0.090
14.002	-0.094
14.004	-0.097
14.006	-0.098
14.008	-0.095
14.010	-0.091
14.012	-0.091
14.014	-0.093
14.016	-0.093
14.018	-0.091
14.020	-0.090
14.022	-0.090
14.024	-0.092
14.026	-0.096
14.028	-0.100
14.030	-0.102
14.032	-0.101
14.034	-0.100
14.036	-0.103
14.038	-0.106
14.040	-0.106
14.042	-0.101
14.044	-0.097
14.046	-0.098
14.048	-0.104
14.050	-0.110
14.052	-0.115
14.054	-0.120
14.056	-0.123
14.058	-0.123
14.060	-0.121
14.062	-0.120
14.064	-0.118
14.066	-0.116
14.068	-0.117
14.070	-0.117
14.072	-0.118
14.074	-0.121
14.076	-0.123
14.078	-0.124
14.080	-0.122
14.082	-0.123
14.084	-0.126
14.086	-0.128
14.088	-0.131
14.090	-0.134
14.092	-0.135
14.094	-0.136
14.096	-0.138
14.098	-0.139
14.100	-0.138
14.102	-0.138
14.104	-0.140
14.106	-0.140
14.108	-0.138
14.110	-0.138
14.112	-0.141
14.114	-0.144
14.116	-0.145
14.118	-0.145
14.120	-0.147
14.122	-0.148
14.124	-0.147
14.126	-0.146
14.128	-0.146
14.130	-0.147
14.132	-0.148
14.134	-0.148
14.136	-0.149
14.138	-0.149
14.140	-0.149
14.142	-0.149
14.144	-0.148
14.146	-0.146
14.148	-0.145
14.150	-0.145
14.152	-0.145
14.154	-0.148
14.156	-0.154
14.158	-0.156
14.160	-0.154
14.162	-0.150
14.164	-0.148
14.166	-0.145
14.168	-0.145
14.170	-0.148
14.172	-0.152
14.174	-0.155
14.176	-0.157
14.178	-0.157
14.180	-0.155
14.182	-0.152
14.184	-0.152
14.186	-0.155
14.188	-0.157
14.190	-0.158
14.192	-0.158
14.194	-0.157
14.196	-0.157
14.198	-0.158
14.200	-0.159
14.202	-0.159
14.204	-0.158
14.206	-0.157
14.208	-0.155
14.210	-0.153
14.212	-0.152
14.214	-0.152
14.216	-0.152
14.218	-0.153
14.220	-0.155
14.222	-0.157
14.224	-0.158
14.226	-0.160
14.228	-0.161
14.230	-0.162
14.232	-0.162
14.234	-0.160
14.236	-0.159
14.238	-0.158
14.240	-0.158
14.242	-0.158
14.244	-0.160
14.246	-0.163
14.248	-0.165
14.250	-0.167
14.252	-0.166
14.254	-0.164
14.256	-0.162
14.258	-0.160
14.260	-0.159
14.262	-0.160
14.264	-0.159
14.266	-0.158
14.268	-0.159
14.270	-0.163
14.272	-0.165
14.274	-0.165
14.276	-0.163
14.278	-0.162
14.280	-0.161
14.282	-0.161
14.284	-0.162
14.286	-0.162
14.288	-0.161
14.290	-0.159
14.292	-0.157
14.294	-0.155
14.296	-0.154
14.298	-0.153
14.300	-0.153
14.302	-0.155
14.304	-0.157
14.306	-0.158
14.308	-0.156
14.310	-0.154
14.312	-0.155
14.314	-0.159
14.316	-0.162
14.318	-0.159
14.320	-0.154
14.322	-0.150
14.324	-0.149
14.326	-0.151
14.328	-0.153
14.330	-0.151
14.332	-0.149
14.334	-0.148
14.336	-0.148
14.338	-0.150
14.340	-0.151
14.342	-0.149
14.344	-0.148
14.346	-0.149
14.348	-0.153
14.350	-0.155
14.352	-0.155
14.354	-0.154
14.356	-0.153
14.358	-0.153
14.360	-0.151
14.362	-0.147
14.364	-0.142
14.366	-0.140
14.368	-0.138
14.370	-0.137
14.372	-0.141
14.374	-0.147
14.376	-0.151
14.378	-0.151
14.380	-0.147
14.382	-0.139
14.384	-0.134
14.386	-0.134
14.388	-0.136
14.390	-0.138
14.392	-0.139
14.394	-0.142
14.396	-0.143
14.398	-0.139
14.400	-0.135
14.402	-0.133
14.404	-0.135
14.406	-0.137
14.408	-0.136
14.410	-0.136
14.412	-0.136
14.414	-0.136
14.416	-0.136
14.418	-0.134
14.420	-0.130
14.422	-0.127
14.424	-0.126
14.426	-0.126
14.428	-0.125
14.430	-0.124
14.432	-0.122
14.434	-0.123
14.436	-0.126
14.438	-0.128
14.440	-0.126
14.442	-0.125
14.444	-0.126
14.446	-0.128
14.448	-0.128
14.450	-0.127
14.452	-0.126
14.454	-0.126
14.456	-0.127
14.458	-0.128
14.460	-0.128
14.462	-0.127
14.464	-0.128
14.466	-0.127
14.468	-0.124
14.470	-0.124
14.472	-0.124
14.474	-0.123
14.476	-0.120
14.478	-0.119
14.480	-0.121
14.482	-0.125
14.484	-0.128
14.486	-0.127
14.488	-0.124
14.490	-0.123
14.492	-0.122
14.494	-0.122
14.496	-0.125
14.498	-0.127
14.500	-0.127
14.502	-0.124
14.504	-0.123
14.506	-0.124
14.508	-0.126
14.510	-0.127
14.512	-0.126
14.514	-0.126
14.516	-0.128
14.518	-0.130
14.520	-0.130
14.522	-0.130
14.524	-0.134
14.526	-0.135
14.528	-0.128
14.530	-0.117
14.532	-0.111
14.534	-0.108
14.536	-0.108
14.538	-0.109
14.540	-0.106
14.542	-0.102
14.544	-0.096
14.546	-0.092
14.548	-0.093
14.550	-0.097
14.552	-0.100
14.554	-0.100
14.556	-0.097
14.558	-0.096
14.560	-0.099
14.562	-0.096
14.564	-0.084
14.566	-0.071
14.568	-0.062
14.570	-0.053
14.572	-0.043
14.574	-0.038
14.576	-0.043
14.578	-0.055
14.580	-0.064
14.582	-0.068
14.584	-0.067
14.586	-0.059
14.588	-0.051
14.590	-0.048
14.592	-0.047
14.594	-0.051
14.596	-0.063
14.598	-0.079
14.600	-0.092
14.602	-0.102
14.604	-0.109
14.606	-0.112
14.608	-0.112
14.610	-0.110
14.612	-0.110
14.614	-0.115
14.616	-0.121
14.618	-0.123
14.620	-0.122
14.622	-0.119
14.624	-0.117
14.626	-0.116
14.628	-0.114
14.630	-0.113
14.632	-0.112
14.634	-0.110
14.636	-0.110
14.638	-0.111
14.640	-0.111
14.642	-0.110
14.644	-0.109
14.646	-0.109
14.648	-0.110
14.650	-0.110
14.652	-0.109
14.654	-0.107
14.656	-0.106
14.658	-0.105
14.660	-0.104
14.662	-0.103
14.664	-0.103
14.666	-0.102
14.668	-0.100
14.670	-0.099
14.672	-0.100
14.674	-0.102
14.676	-0.102
14.678	-0.100
14.680	-0.096
14.682	-0.093
14.684	-0.093
14.686	-0.094
14.688	-0.092
14.690	-0.089
14.692	-0.089
14.694	-0.096
14.696	-0.112
14.698	-0.150
14.700	-0.225
14.702	-0.335
14.704	-0.447
14.706	-0.516
14.708	-0.534
14.710	-0.525
14.712	-0.485
14.714	-0.392
14.716	-0.275
14.718	-0.176
14.720	-0.071
14.722	0.091
14.724	0.363
14.726	0.777
14.728	1.261
14.730	1.715
14.732	2.103
14.734	2.440
14.736	2.718
14.738	2.893
14.740	2.937
14.742	2.841
14.744	2.591
14.746	2.207
14.748	1.745
14.750	1.245
14.752	0.761
14.754	0.389
14.756	0.154
14.758	-0.015
14.760	-0.158
14.762	-0.281
14.764	-0.385
14.766	-0.465
14.768	-0.509
14.770	-0.498
14.772	-0.444
14.774	-0.386
14.776	-0.338
14.778	-0.297
14.780	-0.265
14.782	-0.231
14.784	-0.181
14.786	-0.121
14.788	-0.081
14.790	-0.071
14.792	-0.078
14.794	-0.086
14.796	-0.089
14.798	-0.090
14.800	-0.087
14.802	-0.080
14.804	-0.073
14.806	-0.070
14.808	-0.069
14.810	-0.066
14.812	-0.061
14.814	-0.055
14.816	-0.048
14.818	-0.045
14.820	-0.045
14.822	-0.044
14.824	-0.042
14.826	-0.040
14.828	-0.037
14.830	-0.032
14.832	-0.030
14.834	-0.032
14.836	-0.033
14.838	-0.031
14.840	-0.028
14.842	-0.023
14.844	-0.016
14.846	-0.010
14.848	-0.005
14.850	-0.001
14.852	0.001
14.854	0.003
14.856	0.005
14.858	0.007
14.860	0.008
14.862	0.010
14.864	0.012
14.866	0.014
14.868	0.015
14.870	0.018
14.872	0.023
14.874	0.025
14.876	0.025
14.878	0.027
14.880	0.031
14.882	0.036
14.884	0.041
14.886	0.046
14.888	0.048
14.890	0.048
14.892	0.048
14.894	0.050
14.896	0.053
14.898	0.056
14.900	0.059
14.902	0.062
14.904	0.066
14.906	0.070
14.908	0.073
14.910	0.076
14.912	0.079
14.914	0.082
14.916	0.084
14.918	0.088
14.920	0.094
14.922	0.102
14.924	0.110
14.926	0.116
14.928	0.122
14.930	0.128
14.932	0.134
14.934	0.138
14.936	0.142
14.938	0.149
14.940	0.158
14.942	0.166
14.944	0.174
14.946	0.185
14.948	0.197
14.950	0.208
14.952	0.218
14.954	0.229
14.956	0.237
14.958	0.244
14.960	0.252
14.962	0.263
14.964	0.274
14.966	0.283
14.968	0.294
14.970	0.307
14.972	0.319
14.974	0.333
14.976	0.346
14.978	0.357
14.980	0.368
14.982	0.380
14.984	0.393
14.986	0.406
14.988	0.417
14.990	0.428
14.992	0.442
14.994	0.454
14.996	0.463
14.998	0.470
15.000	0.481
15.002	0.493
15.004	0.505
15.006	0.514
15.008	0.522
15.010	0.528
15.012	0.533
15.014	0.535
15.016	0.538
15.018	0.546
15.020	0.556
15.022	0.562
15.024	0.563
15.026	0.564
15.028	0.565
15.030	0.566
15.032	0.566
15.034	0.561
15.036	0.554
15.038	0.548
15.040	0.541
15.042	0.527
15.044	0.511
15.046	0.495
15.048	0.478
15.050	0.458
15.052	0.436
15.054	0.414
15.056	0.394
15.058	0.374
15.060	0.352
15.062	0.329
15.064	0.306
15.066	0.285
15.068	0.268
15.070	0.251
15.072	0.232
15.074	0.211
15.076	0.190
15.078	0.171
15.080	0.154
15.082	0.139
15.084	0.123
15.086	0.107
15.088	0.093
15.090	0.079
15.092	0.065
15.094	0.053
15.096	0.042
15.098	0.033
15.100	0.024
15.102	0.015
15.104	0.007
15.106	0.000
15.108	-0.006
15.110	-0.012
15.112	-0.017
15.114	-0.021
15.116	-0.024
15.118	-0.029
15.120	-0.033
15.122	-0.035
15.124	-0.034
15.126	-0.032
15.128	-0.031
15.130	-0.031
15.132	-0.034
15.134	-0.038
15.136	-0.041
15.138	-0.042
15.140	-0.041
15.142	-0.041
15.144	-0.039
15.146	-0.036
15.148	-0.036
15.150	-0.035
15.152	-0.032
15.154	-0.031
15.156	-0.031
15.158	-0.032
15.160	-0.032
15.162	-0.029
15.164	-0.026
15.166	-0.025
15.168	-0.026
15.170	-0.025
15.172	-0.023
15.174	-0.022
15.176	-0.022
15.178	-0.023
15.180	-0.023
15.182	-0.021
15.184	-0.017
15.186	-0.015
15.188	-0.015
15.190	-0.012
15.192	-0.008
15.194	-0.006
15.196	-0.003
15.198	-0.001
15.200	-0.001
15.202	0.000
15.204	0.001
15.206	0.002
15.208	0.003
15.210	0.006
15.212	0.009
15.214	0.012
15.216	0.012
15.218	0.011
15.220	0.011
15.222	0.013
15.224	0.015
15.226	0.016
15.228	0.015
15.230	0.015
15.232	0.015
15.234	0.014
15.236	0.014
15.238	0.015
15.240	0.016
15.242	0.017
15.244	0.016
15.246	0.013
15.248	0.010
15.250	0.010
15.252	0.011
15.254	0.012
15.256	0.013
15.258	0.012
15.260	0.010
15.262	0.009
15.264	0.010
15.266	0.009
15.268	0.006
15.270	0.005
15.272	0.005
15.274	0.006
15.276	0.005
15.278	0.004
15.280	0.005
15.282	0.007
15.284	0.007
15.286	0.006
15.288	0.005
15.290	0.004
15.292	0.004
15.294	0.003
15.296	0.002
15.298	0.000
15.300	-0.001
15.302	0.000
15.304	0.000
15.306	-0.001
15.308	-0.002
15.310	-0.002
15.312	-0.002
15.314	-0.003
15.316	-0.003
15.318	-0.005
15.320	-0.006
15.322	-0.004
15.324	-0.002
15.326	-0.001
15.328	-0.001
15.330	-0.002
15.332	-0.004
15.334	-0.008
15.336	-0.009
15.338	-0.006
15.340	-0.003
15.342	-0.003
15.344	-0.004
15.346	-0.006
15.348	-0.009
15.350	-0.010
15.352	-0.010
15.354	-0.012
15.356	-0.011
15.358	-0.011
15.360	-0.013
15.362	-0.014
15.364	-0.013
15.366	-0.013
15.368	-0.013
15.370	-0.012
15.372	-0.012
15.374	-0.013
15.376	-0.015
15.378	-0.017
15.380	-0.018
15.382	-0.017
15.384	-0.015
15.386	-0.015
15.388	-0.013
15.390	-0.011
15.392	-0.011
15.394	-0.014
15.396	-0.017
15.398	-0.018
15.400	-0.018
15.402	-0.017
15.404	-0.017
15.406	-0.019
15.408	-0.020
15.410	-0.019
15.412	-0.017
15.414	-0.013
15.416	-0.013
15.418	-0.015
15.420	-0.018
15.422	-0.019
15.424	-0.015
15.426	-0.012
15.428	-0.011
15.430	-0.011
15.432	-0.012
15.434	-0.014
15.436	-0.017
15.438	-0.018
15.440	-0.019
15.442	-0.019
15.444	-0.020
15.446	-0.020
15.448	-0.017
15.450	-0.015
15.452	-0.014
15.454	-0.014
15.456	-0.013
15.458	-0.013
15.460	-0.012
15.462	-0.011
15.464	-0.011
15.466	-0.013
15.468	-0.015
15.470	-0.015
15.472	-0.014
15.474	-0.014
15.476	-0.015
15.478	-0.015
15.480	-0.015
15.482	-0.014
15.484	-0.013
15.486	-0.014
15.488	-0.014
15.490	-0.014
15.492	-0.012
15.494	-0.011
15.496	-0.011
15.498	-0.012
15.500	-0.012
15.502	-0.011
15.504	-0.012
15.506	-0.013
15.508	-0.015
15.510	-0.018
15.512	-0.018
15.514	-0.016
15.516	-0.014
15.518	-0.013
15.520	-0.015
15.522	-0.016
15.524	-0.015
15.526	-0.014
15.528	-0.014
15.530	-0.016
15.532	-0.017
15.534	-0.017
15.536	-0.018
15.538	-0.018
15.540	-0.018
15.542	-0.017
15.544	-0.015
15.546	-0.015
15.548	-0.016
15.550	-0.015
15.552	-0.015
15.554	-0.015
15.556	-0.016
15.558	-0.017
15.560	-0.019
15.562	-0.019
15.564	-0.016
15.566	-0.014
15.568	-0.012
15.570	-0.013
15.572	-0.016
15.574	-0.020
15.576	-0.021
15.578	-0.018
15.580	-0.015
15.582	-0.016
15.584	-0.018
15.586	-0.020
15.588	-0.023
15.590	-0.025
15.592	-0.024
15.594	-0.021
15.596	-0.018
15.598	-0.015
15.600	-0.013
15.602	-0.011
15.604	-0.011
15.606	-0.009
15.608	-0.008
15.610	-0.007
15.612	-0.006
15.614	-0.006
15.616	-0.005
15.618	-0.003
15.620	-0.001
15.622	-0.002
15.624	-0.002
15.626	-0.002
15.628	-0.001
15.630	-0.001
15.632	-0.001
15.634	-0.002
15.636	-0.002
15.638	-0.000
15.640	0.000
15.642	0.000
15.644	0.000
15.646	0.001
15.648	0.001
15.650	-0.001
15.652	-0.004
15.654	-0.003
15.656	-0.001
15.658	-0.001
15.660	-0.002
15.662	-0.001
15.664	0.001
15.666	0.002
15.668	0.004
15.670	0.003
15.672	0.004
15.674	0.005
15.676	0.005
15.678	0.004
15.680	0.005
15.682	0.006
15.684	0.008
15.686	0.010
15.688	0.012
15.690	0.010
15.692	0.009
15.694	0.008
15.696	0.008
15.698	0.009
15.700	0.010
15.702	0.012
15.704	0.012
15.706	0.012
15.708	0.011
15.710	0.011
15.712	0.013
15.714	0.013
15.716	0.009
15.718	0.005
15.720	0.003
15.722	0.004
15.724	0.007
15.726	0.010
15.728	0.012
15.730	0.011
15.732	0.010
15.734	0.009
15.736	0.009
15.738	0.007
15.740	0.005
15.742	0.005
15.744	0.006
15.746	0.006
15.748	0.006
15.750	0.005
15.752	0.006
15.754	0.008
15.756	0.010
15.758	0.011
15.760	0.010
15.762	0.010
15.764	0.013
15.766	0.016
15.768	0.016
15.770	0.016
15.772	0.016
15.774	0.015
15.776	0.015
15.778	0.014
15.780	0.013
15.782	0.012
15.784	0.012
15.786	0.013
15.788	0.013
15.790	0.013
15.792	0.013
15.794	0.011
15.796	0.007
15.798	0.002
15.800	0.002
15.802	0.004
15.804	0.004
15.806	0.000
15.808	-0.002
15.810	0.003
15.812	0.012
15.814	0.018
15.816	0.019
15.818	0.019
15.820	0.022
15.822	0.026
15.824	0.027
15.826	0.027
15.828	0.027
15.830	0.026
15.832	0.025
15.834	0.023
15.836	0.022
15.838	0.024
15.840	0.027
15.842	0.031
15.844	0.039
15.846	0.049
15.848	0.060
15.850	0.075
15.852	0.089
15.854	0.094
15.856	0.090
15.858	0.084
15.860	0.074
15.862	0.062
15.864	0.054
15.866	0.054
15.868	0.058
15.870	0.065
15.872	0.068
15.874	0.068
15.876	0.066
15.878	0.060
15.880	0.050
15.882	0.040
15.884	0.031
15.886	0.022
15.888	0.014
15.890	0.009
15.892	0.007
15.894	0.007
15.896	0.006
15.898	0.002
15.900	-0.002
15.902	-0.004
15.904	-0.004
15.906	-0.003
15.908	-0.003
15.910	-0.003
15.912	-0.001
15.914	-0.001
15.916	-0.001
15.918	-0.003
15.920	-0.004
15.922	-0.002
15.924	0.000
15.926	0.002
15.928	0.003
15.930	0.000
15.932	-0.002
15.934	-0.002
15.936	-0.003
15.938	-0.005
15.940	-0.006
15.942	-0.007
15.944	-0.005
15.946	-0.002
15.948	-0.001
15.950	-0.002
15.952	-0.002
15.954	-0.002
15.956	-0.002
15.958	-0.001
15.960	0.002
15.962	0.003
15.964	0.002
15.966	0.002
15.968	0.004
15.970	0.005
15.972	0.005
15.974	0.002
15.976	-0.006
15.978	-0.023
15.980	-0.064
15.982	-0.143
15.984	-0.259
15.986	-0.379
15.988	-0.458
15.990	-0.477
15.992	-0.464
15.994	-0.433
15.996	-0.359
15.998	-0.252
16.000	-0.152
16.002	-0.046
16.004	0.121
16.006	0.409
16.008	0.847
16.010	1.370
16.012	1.866
16.014	2.286
16.016	2.640
16.018	2.941
16.020	3.154
16.022	3.228
16.024	3.137
16.026	2.863
16.028	2.416
16.030	1.879
16.032	1.332
16.034	0.828
16.036	0.434
16.038	0.177
16.040	-0.000
16.042	-0.147
16.044	-0.279
16.046	-0.392
16.048	-0.469
16.050	-0.488
16.052	-0.448
16.054	-0.381
16.056	-0.314
16.058	-0.261
16.060	-0.228
16.062	-0.199
16.064	-0.151
16.066	-0.080
16.068	-0.027
16.070	-0.014
16.072	-0.024
16.074	-0.035
16.076	-0.043
16.078	-0.047
16.080	-0.049
16.082	-0.046
16.084	-0.042
16.086	-0.037
16.088	-0.033
16.090	-0.029
16.092	-0.025
16.094	-0.021
16.096	-0.018
16.098	-0.016
16.100	-0.014
16.102	-0.012
16.104	-0.009
16.106	-0.006
16.108	-0.005
16.110	-0.003
16.112	-0.000
16.114	0.004
16.116	0.007
16.118	0.008
16.120	0.008
16.122	0.010
16.124	0.014
16.126	0.017
16.128	0.020
16.130	0.024
16.132	0.027
16.134	0.029
16.136	0.033
16.138	0.038
16.140	0.044
16.142	0.050
16.144	0.053
16.146	0.054
16.148	0.055
16.150	0.060
16.152	0.065
16.154	0.069
16.156	0.072
16.158	0.073
16.160	0.073
16.162	0.074
16.164	0.077
16.166	0.082
16.168	0.086
16.170	0.089
16.172	0.090
16.174	0.092
16.176	0.094
16.178	0.095
16.180	0.096
16.182	0.098
16.184	0.100
16.186	0.103
16.188	0.109
16.190	0.116
16.192	0.121
16.194	0.122
16.196	0.123
16.198	0.125
16.200	0.129
16.202	0.133
16.204	0.137
16.206	0.140
16.208	0.142
16.210	0.144
16.212	0.148
16.214	0.156
16.216	0.163
16.218	0.169
16.220	0.175
16.222	0.182
16.224	0.189
16.226	0.195
16.228	0.200
16.230	0.203
16.232	0.208
16.234	0.215
16.236	0.223
16.238	0.231
16.240	0.241
16.242	0.251
16.244	0.262
16.246	0.274
16.248	0.285
16.250	0.297
16.252	0.310
16.254	0.323
16.256	0.334
16.258	0.345
16.260	0.358
16.262	0.371
16.264	0.384
16.266	0.397
16.268	0.409
16.270	0.421
16.272	0.432
16.274	0.443
16.276	0.455
16.278	0.466
16.280	0.476
16.282	0.486
16.284	0.496
16.286	0.505
16.288	0.516
16.290	0.527
16.292	0.539
16.294	0.549
16.296	0.555
16.298	0.559
16.300	0.564
16.302	0.571
16.304	0.576
16.306	0.580
16.308	0.583
16.310	0.585
16.312	0.584
16.314	0.582
16.316	0.578
16.318	0.573
16.320	0.565
16.322	0.556
16.324	0.543
16.326	0.527
16.328	0.510
16.330	0.491
16.332	0.472
16.334	0.453
16.336	0.433
16.338	0.410
16.340	0.385
16.342	0.361
16.344	0.341
16.346	0.320
16.348	0.297
16.350	0.275
16.352	0.255
16.354	0.235
16.356	0.212
16.358	0.189
16.360	0.168
16.362	0.149
16.364	0.132
16.366	0.117
16.368	0.101
16.370	0.086
16.372	0.070
16.374	0.055
16.376	0.042
16.378	0.029
16.380	0.016
16.382	0.005
16.384	-0.004
16.386	-0.012
16.388	-0.019
16.390	-0.026
16.392	-0.032
16.394	-0.039
16.396	-0.044
16.398	-0.046
16.400	-0.049
16.402	-0.053
16.404	-0.057
16.406	-0.060
16.408	-0.063
16.410	-0.064
16.412	-0.066
16.414	-0.069
16.416	-0.071
16.418	-0.071
16.420	-0.073
16.422	-0.076
16.424	-0.077
16.426	-0.075
16.428	-0.073
16.430	-0.073
16.432	-0.075
16.434	-0.077
16.436	-0.076
16.438	-0.073
16.440	-0.072
16.442	-0.071
16.444	-0.071
16.446	-0.071
16.448	-0.069
16.450	-0.068
16.452	-0.066
16.454	-0.065
16.456	-0.065
16.458	-0.066
16.460	-0.066
16.462	-0.065
16.464	-0.065
16.466	-0.065
16.468	-0.064
16.470	-0.063
16.472	-0.062
16.474	-0.061
16.476	-0.060
16.478	-0.060
16.480	-0.061
16.482	-0.060
16.484	-0.058
16.486	-0.056
16.488	-0.055
16.490	-0.054
16.492	-0.052
16.494	-0.051
16.496	-0.051
16.498	-0.052
16.500	-0.053
16.502	-0.052
16.504	-0.050
16.506	-0.048
16.508	-0.046
16.510	-0.048
16.512	-0.051
16.514	-0.052
16.516	-0.051
16.518	-0.050
16.520	-0.050
16.522	-0.051
16.524	-0.052
16.526	-0.052
16.528	-0.054
16.530	-0.055
16.532	-0.057
16.534	-0.058
16.536	-0.058
16.538	-0.060
16.540	-0.062
16.542	-0.064
16.544	-0.063
16.546	-0.061
16.548	-0.059
16.550	-0.058
16.552	-0.058
16.554	-0.060
16.556	-0.061
16.558	-0.063
16.560	-0.066
16.562	-0.067
16.564	-0.067
16.566	-0.068
16.568	-0.069
16.570	-0.070
16.572	-0.070
16.574	-0.070
16.576	-0.073
16.578	-0.074
16.580	-0.075
16.582	-0.076
16.584	-0.076
16.586	-0.076
16.588	-0.076
16.590	-0.076
16.592	-0.076
16.594	-0.078
16.596	-0.080
16.598	-0.081
16.600	-0.081
16.602	-0.082
16.604	-0.085
16.606	-0.087
16.608	-0.089
16.610	-0.091
16.612	-0.094
16.614	-0.095
16.616	-0.094
16.618	-0.094
16.620	-0.094
16.622	-0.096
16.624	-0.094
16.626	-0.092
16.628	-0.093
16.630	-0.095
16.632	-0.095
16.634	-0.096
16.636	-0.098
16.638	-0.100
16.640	-0.100
16.642	-0.102
16.644	-0.103
16.646	-0.103
16.648	-0.103
16.650	-0.102
16.652	-0.101
16.654	-0.102
16.656	-0.106
16.658	-0.110
16.660	-0.111
16.662	-0.110
16.664	-0.110
16.666	-0.111
16.668	-0.110
16.670	-0.110
16.672	-0.110
16.674	-0.111
16.676	-0.114
16.678	-0.117
16.680	-0.117
16.682	-0.116
16.684	-0.114
16.686	-0.113
16.688	-0.112
16.690	-0.112
16.692	-0.113
16.694	-0.114
16.696	-0.116
16.698	-0.118
16.700	-0.121
16.702	-0.121
16.704	-0.119
16.706	-0.117
16.708	-0.117
16.710	-0.119
16.712	-0.120
16.714	-0.120
16.716	-0.120
16.718	-0.120
16.720	-0.120
16.722	-0.122
16.724	-0.123
16.726	-0.123
16.728	-0.123
16.730	-0.123
16.732	-0.123
16.734	-0.122
16.736	-0.122
16.738	-0.124
16.740	-0.126
16.742	-0.127
16.744	-0.126
16.746	-0.126
16.748	-0.127
16.750	-0.128
16.752	-0.129
16.754	-0.130
16.756	-0.131
16.758	-0.133
16.760	-0.134
16.762	-0.132
16.764	-0.129
16.766	-0.130
16.768	-0.133
16.770	-0.134
16.772	-0.134
16.774	-0.136
16.776	-0.137
16.778	-0.138
16.780	-0.139
16.782	-0.140
16.784	-0.140
16.786	-0.138
16.788	-0.136
16.790	-0.134
16.792	-0.135
16.794	-0.137
16.796	-0.139
16.798	-0.141
16.800	-0.145
16.802	-0.148
16.804	-0.148
16.806	-0.148
16.808	-0.146
16.810	-0.143
16.812	-0.140
16.814	-0.140
16.816	-0.142
16.818	-0.145
16.820	-0.146
16.822	-0.145
16.824	-0.143
16.826	-0.141
16.828	-0.142
16.830	-0.145
16.832	-0.146
16.834	-0.145
16.836	-0.144
16.838	-0.144
16.840	-0.144
16.842	-0.144
16.844	-0.146
16.846	-0.149
16.848	-0.150
16.850	-0.151
16.852	-0.151
16.854	-0.151
16.856	-0.152
16.858	-0.153
16.860	-0.152
16.862	-0.152
16.864	-0.151
16.866	-0.148
16.868	-0.146
16.870	-0.147
16.872	-0.149
16.874	-0.151
16.876	-0.154
16.878	-0.158
16.880	-0.158
16.882	-0.154
16.884	-0.151
16.886	-0.150
16.888	-0.152
16.890	-0.154
16.892	-0.153
16.894	-0.150
16.896	-0.149
16.898	-0.149
16.900	-0.148
16.902	-0.148
16.904	-0.146
16.906	-0.145
16.908	-0.145
16.910	-0.145
16.912	-0.145
16.914	-0.144
16.916	-0.144
16.918	-0.144
16.920	-0.145
16.922	-0.146
16.924	-0.145
16.926	-0.145
16.928	-0.146
16.930	-0.146
16.932	-0.146
16.934	-0.145
16.936	-0.145
16.938	-0.147
16.940	-0.149
16.942	-0.147
16.944	-0.143
16.946	-0.142
16.948	-0.144
16.950	-0.147
16.952	-0.148
16.954	-0.147
16.956	-0.144
16.958	-0.144
16.960	-0.147
16.962	-0.150
16.964	-0.148
16.966	-0.145
16.968	-0.143
16.970	-0.144
16.972	-0.146
16.974	-0.148
16.976	-0.151
16.978	-0.153
16.980	-0.152
16.982	-0.153
16.984	-0.155
16.986	-0.154
16.988	-0.152
16.990	-0.152
16.992	-0.153
16.994	-0.153
16.996	-0.153
16.998	-0.153
17.000	-0.152
17.002	-0.152
17.004	-0.152
17.006	-0.151
17.008	-0.150
17.010	-0.149
17.012	-0.148
17.014	-0.148
17.016	-0.149
17.018	-0.148
17.020	-0.148
17.022	-0.150
17.024	-0.152
17.026	-0.152
17.028	-0.151
17.030	-0.149
17.032	-0.147
17.034	-0.146
17.036	-0.146
